Time	ECG	ECG_Normalized	Heart_Rate	EDA
0.0 349.0 500 0.0 306.0
22.0 349.0 0 0.0 306.0
44.0 349.0 0 0.15591988836135995 306.0
65.0 349.0 0 0.3118397767227199 306.0
87.0 349.0 0 0.46775966508407985 306.0
109.0 365.0 0 0.6236795534454398 306.0
130.0 365.0 0 0.7795994418067997 306.0
153.0 365.0 0 0.9355193301681597 306.0
173.0 367.0 0 1.0914392185295196 306.0
193.0 381.0 0 1.2473591068908796 306.0
214.0 360.0 0 1.4032789952522395 306.0
233.0 360.0 0 1.5591988836135995 306.0
254.0 360.0 0 1.7151187719749594 306.0
294.0 360.0 0 1.8710386603363194 306.0
314.0 305.0 0 2.0269585486976793 306.0
336.0 327.0 0 2.1828784370590393 306.0
357.0 342.0 0 2.3387983254203992 306.0
378.0 343.0 0 2.494718213781759 306.0
399.0 343.0 0 2.650638102143119 306.0
421.0 240.0 0 2.806557990504479 306.0
442.0 240.0 0 2.962477878865839 306.0
463.0 285.0 500 3.118397767227199 306.0
483.0 133.0 0 3.274317655588559 306.0
504.0 163.0 0 3.430237543949919 306.0
525.0 154.0 0 3.586157432311279 306.0
546.0 171.0 0 3.7420773206726388 306.0
568.0 195.0 0 3.8979972090339983 306.0
589.0 231.0 0 4.053917097395359 306.0
610.0 235.0 0 4.209836985756718 306.0
631.0 221.0 0 4.365756874118079 306.0
653.0 239.0 0 4.521676762479438 306.0
674.0 256.0 0 4.6775966508407985 306.0
695.0 303.0 0 4.833516539202158 306.0
716.0 338.0 0 4.989436427563518 306.0
738.0 342.0 0 5.145356315924879 306.0
759.0 342.0 0 5.301276204286238 305.0
800.0 342.0 0 5.457196092647599 305.0
822.0 310.0 0 5.613115981008958 304.0
842.0 337.0 0 5.7690358693703185 304.0
864.0 338.0 0 5.924955757731678 303.0
885.0 334.0 0 6.0808756460930375 303.0
907.0 337.0 0 6.236795534454398 303.0
928.0 357.0 0 6.392715422815758 302.0
949.0 373.0 0 6.548635311177118 302.0
970.0 394.0 0 6.704555199538477 301.0
992.0 392.0 0 6.860475087899838 301.0
1013.0 364.0 0 7.016394976261197 301.0
1034.0 394.0 0 7.172314864622558 300.0
1055.0 384.0 0 7.328234752983917 300.0
1077.0 385.0 0 7.4841546413452775 300.0
1098.0 387.0 0 7.640074529706637 299.0
1119.0 400.0 0 7.7959944180679965 299.0
1140.0 388.0 0 7.951914306429358 298.0
1162.0 382.0 0 8.107834194790717 298.0
1183.0 386.0 0 8.263754083152078 298.0
1204.0 403.0 0 8.419673971513436 297.0
1225.0 403.0 0 8.575593859874797 297.0
1247.0 403.0 0 8.731513748236157 296.0
1288.0 403.0 0 8.887433636597518 295.0
1309.0 308.0 0 9.043353524958876 294.0
1331.0 343.0 0 9.199273413320237 294.0
1351.0 339.0 0 9.355193301681597 293.0
1373.0 339.0 0 9.511113190042956 292.0
1394.0 342.0 0 9.667033078404316 291.0
1416.0 367.0 0 9.822952966765676 291.0
1436.0 368.0 0 9.978872855127037 290.0
1458.0 368.0 0 10.134792743488395 289.0
1479.0 377.0 0 10.290712631849757 289.0
1501.0 372.0 0 10.446632520211116 288.0
1521.0 394.0 0 10.602552408572476 287.0
1543.0 389.0 0 10.758472296933835 286.0
1564.0 372.0 0 10.914392185295197 286.0
1586.0 378.0 0 11.070312073656556 285.0
1606.0 374.0 0 11.226231962017916 284.0
1628.0 382.0 0 11.382151850379277 283.0
1649.0 399.0 0 11.538071738740637 283.0
1671.0 391.0 0 11.693991627101996 282.0
1691.0 397.0 0 11.849911515463356 281.0
1713.0 418.0 0 12.005831403824715 281.0
1734.0 397.0 0 12.161751292186075 280.0
1756.0 397.0 0 12.317671180547434 280.0
1797.0 397.0 0 12.473591068908796 280.0
1818.0 310.0 0 12.629510957270156 280.0
1839.0 325.0 0 12.785430845631517 280.0
1860.0 338.0 0 12.941350733992875 281.0
1882.0 332.0 0 13.097270622354236 281.0
1903.0 329.0 0 13.253190510715594 281.0
1924.0 332.0 0 13.409110399076955 281.0
1945.0 345.0 0 13.565030287438317 282.0
1967.0 375.0 0 13.720950175799675 282.0
1987.0 365.0 0 13.876870064161036 282.0
2009.0 387.0 0 14.032789952522394 282.0
2030.0 383.0 0 14.188709840883755 282.0
2052.0 377.0 0 14.344629729245115 283.0
2072.0 359.0 0 14.500549617606474 283.0
2094.0 383.0 0 14.656469505967834 283.0
2115.0 376.0 0 14.812389394329196 283.0
2137.0 387.0 0 14.968309282690555 283.0
2157.0 382.0 0 15.124229171051915 284.0
2179.0 384.0 0 15.280149059413274 284.0
2200.0 388.0 0 15.436068947774634 284.0
2222.0 387.0 0 15.591988836135993 284.0
2242.0 374.0 0 15.747908724497353 284.0
2264.0 374.0 0 15.903828612858716 285.0
2305.0 374.0 0 16.059748501220074 285.0
2326.0 319.0 0 16.215668389581435 285.0
2348.0 327.0 0 16.371588277942795 285.0
2369.0 343.0 0 16.527508166304155 285.0
2390.0 339.0 0 16.683428054665512 285.0
2411.0 342.0 0 16.839347943026873 285.0
2433.0 323.0 0 16.995267831388233 285.0
2454.0 338.0 0 17.151187719749593 285.0
2475.0 353.0 0 17.307107608110954 285.0
2496.0 372.0 0 17.463027496472314 286.0
2518.0 344.0 0 17.618947384833675 286.0
2538.0 336.0 0 17.774867273195035 286.0
2560.0 362.0 0 17.930787161556392 286.0
2581.0 367.0 0 18.086707049917752 286.0
2603.0 368.0 0 18.242626938279116 286.0
2623.0 359.0 0 18.398546826640473 286.0
2645.0 364.0 0 18.554466715001833 286.0
2666.0 377.0 0 18.710386603363194 286.0
2688.0 369.0 0 18.866306491724554 286.0
2708.0 344.0 0 19.02222638008591 286.0
2730.0 348.0 0 19.17814626844727 286.0
2751.0 348.0 0 19.334066156808632 286.0
2792.0 348.0 0 19.489986045169996 285.0
2814.0 314.0 0 19.645905933531353 285.0
2835.0 341.0 0 19.801825821892713 284.0
2856.0 339.0 0 19.957745710254073 284.0
2877.0 342.0 0 20.113665598615434 283.0
2899.0 332.0 0 20.26958548697679 282.0
2920.0 347.0 0 20.42550537533815 282.0
2941.0 356.0 0 20.581425263699515 281.0
2962.0 365.0 0 20.737345152060872 281.0
2984.0 358.0 0 20.893265040422232 280.0
3005.0 332.0 0 21.049184928783593 280.0
3026.0 330.0 0 21.205104817144953 279.0
3047.0 328.0 0 21.361024705506313 279.0
3069.0 320.0 0 21.51694459386767 278.0
3089.0 325.0 0 21.67286448222903 278.0
3111.0 318.0 0 21.828784370590395 277.0
3132.0 310.0 0 21.98470425895175 276.0
3154.0 372.0 500 22.140624147313112 276.0
3174.0 339.0 0 22.296544035674472 275.0
3196.0 297.0 0 193.19299626204997 275.0
3217.0 281.0 0 364.08944848842543 274.0
3239.0 331.0 500 534.985900714801 274.0
3259.0 331.0 0 705.8823529411765 274.0
3301.0 331.0 0 670.6929656135451 274.0
3322.0 312.0 0 635.5035782859138 274.0
3343.0 335.0 0 600.3141909582824 274.0
3365.0 336.0 0 565.1248036306511 274.0
3386.0 340.0 0 529.9354163030198 274.0
3407.0 341.0 0 494.74602897538836 274.0
3428.0 335.0 0 459.55664164775703 274.0
3450.0 330.0 0 424.36725432012565 274.0
3471.0 312.0 0 389.17786699249433 274.0
3491.0 298.0 0 353.988479664863 274.0
3513.0 306.0 0 318.7990923372316 274.0
3535.0 324.0 0 283.60970500960025 274.0
3555.0 316.0 0 248.42031768196892 274.0
3576.0 358.0 500 213.23093035433754 274.0
3598.0 320.0 0 178.04154302670622 274.0
3619.0 362.0 500 786.6951901180042 274.0
3640.0 319.0 0 1395.3488372093022 274.0
3661.0 293.0 0 1353.1065169725907 274.0
3683.0 271.0 0 1310.8641967358792 274.0
3704.0 295.0 0 1268.6218764991677 274.0
3725.0 431.0 0 1226.3795562624562 274.0
3746.0 431.0 0 1184.1372360257446 274.0
3787.0 431.0 0 1141.8949157890331 275.0
3809.0 313.0 0 1099.6525955523216 276.0
3830.0 338.0 0 1057.4102753156099 277.0
3852.0 340.0 0 1015.1679550788983 278.0
3872.0 342.0 0 972.9256348421869 279.0
3894.0 341.0 0 930.6833146054753 279.0
3915.0 337.0 0 888.4409943687638 280.0
3936.0 331.0 0 846.1986741320522 281.0
3957.0 324.0 0 803.9563538953407 282.0
3979.0 334.0 0 761.7140336586292 283.0
4000.0 327.0 0 719.4717134219177 284.0
4021.0 315.0 0 677.2293931852062 285.0
4042.0 318.0 0 634.9870729484945 285.0
4064.0 351.0 0 592.744752711783 286.0
4085.0 371.0 0 550.5024324750716 287.0
4106.0 331.0 0 508.2601122383601 288.0
4127.0 311.0 0 466.01779200164844 289.0
4149.0 308.0 0 423.7754717649369 290.0
4170.0 338.0 0 381.5331515282254 291.0
4191.0 411.0 0 339.290831291514 291.0
4212.0 271.0 0 297.04851105480225 292.0
4234.0 244.0 0 254.80619081809073 293.0
4255.0 244.0 0 212.5638705813792 293.0
4296.0 244.0 0 170.32155034466768 293.0
4318.0 318.0 500 128.07923010795616 292.0
4338.0 328.0 0 85.83690987124463 292.0
4360.0 329.0 0 92.69306556536291 292.0
4381.0 334.0 0 99.5492212594812 291.0
4402.0 343.0 0 106.40537695359947 291.0
4423.0 334.0 0 113.26153264771776 291.0
4445.0 328.0 0 120.11768834183604 290.0
4466.0 355.0 0 126.97384403595433 290.0
4487.0 364.0 0 133.82999973007261 290.0
4508.0 385.0 0 140.6861554241909 289.0
4530.0 380.0 0 147.54231111830916 289.0
4551.0 396.0 0 154.39846681242744 289.0
4572.0 378.0 0 161.25462250654573 288.0
4593.0 370.0 0 168.11077820066402 288.0
4615.0 352.0 0 174.9669338947823 288.0
4636.0 468.0 500 181.8230895889006 287.0
4657.0 322.0 0 188.67924528301887 287.0
4678.0 253.0 0 438.28616352201254 287.0
4700.0 379.0 500 687.8930817610062 286.0
4721.0 384.0 0 937.5 286.0
4742.0 386.0 0 891.6164891153312 286.0
4763.0 386.0 0 845.7329782306623 286.0
4804.0 386.0 0 799.8494673459935 286.0
4826.0 316.0 0 753.9659564613247 286.0
4847.0 329.0 0 708.0824455766558 286.0
4869.0 342.0 0 662.198934691987 286.0
4889.0 335.0 0 616.3154238073182 286.0
4911.0 333.0 0 570.4319129226494 286.0
4932.0 338.0 0 524.5484020379806 286.0
4953.0 340.0 0 478.6648911533117 286.0
4974.0 371.0 0 432.78138026864286 286.0
4996.0 352.0 0 386.897869383974 286.0
5017.0 290.0 0 341.01435849930533 286.0
5038.0 244.0 0 295.1308476146364 286.0
5059.0 195.0 0 249.24733672996763 286.0
5081.0 346.0 500 203.36382584529872 286.0
5102.0 321.0 0 157.48031496062993 286.0
5123.0 292.0 0 167.7063094385929 286.0
5143.0 161.0 0 177.9323039165559 286.0
5165.0 195.0 0 188.15829839451885 286.0
5185.0 174.0 0 198.38429287248184 286.0
5207.0 194.0 0 208.61028735044482 286.0
5228.0 200.0 0 218.8362818284078 286.0
5250.0 200.0 0 229.0622763063708 286.0
5291.0 200.0 0 239.28827078433375 289.0
5312.0 316.0 500 249.51426526229676 291.0
5333.0 328.0 0 259.7402597402597 292.0
5354.0 343.0 0 262.0681205586866 294.0
5376.0 330.0 0 264.39598137711346 296.0
5397.0 343.0 0 266.72384219554027 297.0
5418.0 368.0 0 269.05170301396714 299.0
5439.0 380.0 0 271.379563832394 301.0
5461.0 376.0 0 273.7074246508209 302.0
5482.0 384.0 0 276.03528546924775 304.0
5503.0 360.0 0 278.36314628767457 306.0
5524.0 407.0 500 280.69100710610144 307.0
5546.0 447.0 0 283.0188679245283 309.0
5567.0 264.0 0 501.1792452830189 311.0
5588.0 313.0 500 719.3396226415094 312.0
5609.0 335.0 0 937.5 314.0
5631.0 331.0 0 893.7085406301824 316.0
5651.0 347.0 0 849.9170812603649 317.0
5673.0 365.0 0 806.1256218905473 319.0
5694.0 393.0 0 762.3341625207297 321.0
5716.0 388.0 0 718.5427031509121 322.0
5736.0 371.0 0 674.7512437810946 324.0
5758.0 371.0 0 630.9597844112769 324.0
5799.0 371.0 0 587.1683250414594 324.0
5820.0 314.0 0 543.3768656716418 324.0
5842.0 337.0 0 499.5854063018242 323.0
5863.0 337.0 0 455.7939469320066 323.0
5884.0 337.0 0 412.0024875621891 323.0
5905.0 337.0 0 368.2110281923715 323.0
5927.0 290.0 0 324.41956882255386 322.0
5948.0 226.0 0 280.6281094527362 322.0
5969.0 210.0 0 236.8366500829187 322.0
5990.0 412.0 500 193.0451907131012 322.0
6012.0 153.0 0 149.2537313432836 321.0
6033.0 112.0 0 412.002487562189 321.0
6054.0 209.0 500 674.7512437810944 321.0
6075.0 230.0 0 937.5 321.0
6097.0 253.0 0 895.6233669279582 320.0
6118.0 254.0 0 853.7467338559164 320.0
6139.0 265.0 0 811.8701007838746 320.0
6160.0 281.0 0 769.9934677118327 320.0
6182.0 299.0 0 728.116834639791 319.0
6202.0 314.0 0 686.2402015677492 319.0
6224.0 331.0 0 644.3635684957073 319.0
6245.0 331.0 0 602.4869354236655 319.0
6286.0 331.0 0 560.6103023516238 320.0
6307.0 309.0 0 518.733669279582 321.0
6329.0 332.0 0 476.85703620754015 322.0
6349.0 334.0 0 434.98040313549836 322.0
6371.0 334.0 0 393.1037700634565 323.0
6392.0 335.0 0 351.2271369914148 324.0
6414.0 382.0 0 309.35050391937295 325.0
6434.0 412.0 0 267.4738708473311 326.0
6456.0 223.0 0 225.59723777528927 327.0
6477.0 281.0 500 183.72060470324755 327.0
6499.0 339.0 0 141.84397163120568 328.0
6519.0 351.0 0 140.22896910776424 329.0
6541.0 377.0 0 138.61396658432278 330.0
6562.0 385.0 0 136.99896406088135 331.0
6584.0 373.0 0 135.38396153743992 331.0
6604.0 382.0 0 133.76895901399845 332.0
6626.0 400.0 0 132.15395649055702 333.0
6647.0 386.0 0 130.5389539671156 334.0
6668.0 377.0 0 128.92395144367413 335.0
6689.0 386.0 0 127.3089489202327 335.0
6711.0 396.0 0 125.69394639679125 336.0
6732.0 406.0 0 124.0789438733498 337.0
6753.0 406.0 0 122.46394134990837 337.0
6795.0 406.0 0 120.84893882646692 336.0
6815.0 304.0 0 119.23393630302547 335.0
6837.0 326.0 0 117.61893377958404 334.0
6858.0 336.0 0 116.0039312561426 333.0
6880.0 327.0 0 114.38892873270115 333.0
6900.0 330.0 0 112.77392620925971 332.0
6922.0 343.0 0 111.15892368581827 331.0
6943.0 337.0 0 109.54392116237682 330.0
6965.0 353.0 0 107.92891863893539 330.0
6985.0 377.0 0 106.31391611549394 329.0
7007.0 376.0 0 104.69891359205249 328.0
7028.0 389.0 0 103.08391106861104 327.0
7050.0 386.0 0 101.4689085451696 327.0
7070.0 396.0 0 99.85390602172816 326.0
7092.0 384.0 0 98.23890349828672 325.0
7113.0 391.0 0 96.62390097484527 324.0
7135.0 381.0 0 95.00889845140384 323.0
7155.0 383.0 0 93.39389592796239 323.0
7177.0 400.0 0 91.77889340452094 322.0
7198.0 402.0 0 90.16389088107951 321.0
7219.0 386.0 0 88.54888835763805 320.0
7240.0 373.0 0 86.93388583419662 320.0
7262.0 373.0 0 85.31888331075517 319.0
7303.0 373.0 0 83.70388078731374 317.0
7324.0 309.0 0 82.08887826387229 317.0
7346.0 333.0 0 80.47387574043086 316.0
7366.0 329.0 0 78.8588732169894 315.0
7388.0 340.0 0 77.24387069354796 314.0
7409.0 336.0 0 75.62886817010651 314.0
7431.0 319.0 0 74.01386564666508 313.0
7451.0 333.0 0 72.39886312322363 312.0
7473.0 323.0 0 70.7838605997822 311.0
7494.0 307.0 0 69.16885807634074 311.0
7516.0 298.0 0 67.5538555528993 310.0
7536.0 307.0 0 65.93885302945786 309.0
7558.0 289.0 0 64.32385050601641 308.0
7579.0 261.0 0 62.70884798257498 307.0
7601.0 276.0 0 61.09384545913353 307.0
7621.0 275.0 0 59.478842935692086 306.0
7643.0 304.0 0 57.86384041225064 305.0
7664.0 279.0 0 56.248837888809206 304.0
7686.0 217.0 0 54.63383536536776 304.0
7706.0 167.0 0 53.018832841926326 303.0
7728.0 160.0 0 51.40383031848488 302.0
7749.0 160.0 0 49.78882779504343 302.0
7790.0 160.0 0 48.173825271601984 306.0
7812.0 306.0 500 46.55882274816055 308.0
7833.0 337.0 0 44.943820224719104 311.0
7854.0 337.0 0 52.103987662480726 313.0
7875.0 341.0 0 59.26415510024235 315.0
7897.0 337.0 0 66.42432253800396 317.0
7917.0 321.0 0 73.58448997576559 319.0
7939.0 337.0 0 80.74465741352721 322.0
7960.0 328.0 0 87.90482485128882 324.0
7982.0 314.0 0 95.06499228905045 326.0
8002.0 315.0 0 102.22515972681207 328.0
8024.0 312.0 0 109.3853271645737 331.0
8045.0 338.0 0 116.54549460233531 333.0
8067.0 353.0 0 123.70566204009694 335.0
8087.0 373.0 0 130.86582947785854 337.0
8109.0 361.0 0 138.02599691562017 339.0
8130.0 350.0 0 145.1861643533818 342.0
8152.0 333.0 0 152.34633179114343 344.0
8172.0 392.0 500 159.50649922890503 346.0
8194.0 398.0 0 166.66666666666666 348.0
8215.0 154.0 0 418.8034188034188 350.0
8237.0 226.0 500 670.9401709401709 353.0
8257.0 226.0 0 923.0769230769231 353.0
8299.0 226.0 0 856.3484708063021 353.0
8320.0 305.0 500 789.6200185356812 353.0
8341.0 341.0 0 722.8915662650602 353.0
8363.0 335.0 0 685.6380459517841 353.0
8384.0 331.0 0 648.384525638508 353.0
8405.0 341.0 0 611.1310053252319 353.0
8426.0 360.0 0 573.8774850119557 353.0
8448.0 384.0 0 536.6239646986796 353.0
8468.0 384.0 0 499.3704443854035 353.0
8490.0 400.0 0 462.1169240721274 353.0
8511.0 387.0 0 424.8634037588513 352.0
8533.0 379.0 0 387.6098834455752 352.0
8553.0 366.0 0 350.35636313229907 352.0
8575.0 363.0 0 313.10284281902295 352.0
8596.0 356.0 0 275.84932250574684 352.0
8618.0 433.0 500 238.59580219247073 352.0
8638.0 426.0 0 201.34228187919464 352.0
8660.0 255.0 0 198.03192454199166 352.0
8681.0 287.0 0 194.7215672047887 352.0
8703.0 358.0 0 191.4112098675857 352.0
8723.0 371.0 0 188.10085253038275 352.0
8745.0 371.0 0 184.79049519317977 352.0
8786.0 371.0 0 181.48013785597678 351.0
8807.0 316.0 0 178.16978051877382 351.0
8829.0 331.0 0 174.85942318157083 350.0
8850.0 345.0 0 171.54906584436787 350.0
8871.0 335.0 0 168.2387085071649 350.0
8892.0 341.0 0 164.9283511699619 350.0
8914.0 347.0 0 161.61799383275894 349.0
8934.0 350.0 0 158.30763649555595 349.0
8956.0 373.0 0 154.997279158353 349.0
8977.0 380.0 0 151.68692182115 349.0
8999.0 363.0 0 148.37656448394702 348.0
9019.0 357.0 0 145.06620714674406 348.0
9041.0 353.0 0 141.75584980954108 348.0
9062.0 432.0 500 138.44549247233812 348.0
9084.0 394.0 0 135.13513513513513 347.0
9104.0 259.0 0 402.59009009009003 347.0
9126.0 327.0 500 670.045045045045 347.0
9147.0 368.0 0 937.5 347.0
9169.0 365.0 0 914.6953154162001 346.0
9189.0 383.0 0 891.8906308324001 346.0
9211.0 388.0 0 869.0859462486002 346.0
9232.0 404.0 0 846.2812616648004 346.0
9254.0 404.0 0 823.4765770810004 345.0
9295.0 404.0 0 800.6718924972005 345.0
9316.0 309.0 0 777.8672079134005 345.0
9336.0 337.0 0 755.0625233296006 345.0
9358.0 331.0 0 732.2578387458007 345.0
9379.0 341.0 0 709.4531541620008 345.0
9401.0 342.0 0 686.6484695782008 345.0
9421.0 335.0 0 663.843784994401 345.0
9443.0 309.0 0 641.0391004106009 345.0
9464.0 283.0 0 618.2344158268011 345.0
9486.0 269.0 0 595.4297312430011 345.0
9506.0 297.0 0 572.6250466592012 345.0
9528.0 410.0 0 549.8203620754012 345.0
9549.0 182.0 0 527.0156774916013 345.0
9570.0 214.0 0 504.2109929078014 345.0
9591.0 287.0 0 481.40630832400154 345.0
9613.0 309.0 0 458.60162374020155 345.0
9634.0 331.0 0 435.7969391564016 345.0
9655.0 350.0 0 412.9922545726017 345.0
9676.0 365.0 0 390.1875699888018 345.0
9698.0 353.0 0 367.38288540500184 345.0
9719.0 378.0 0 344.5782008212019 345.0
9740.0 381.0 0 321.7735162374021 345.0
9761.0 381.0 0 298.96883165360214 344.0
9802.0 381.0 0 276.1641470698022 342.0
9824.0 315.0 0 253.35946248600226 341.0
9845.0 336.0 0 230.55477790220232 340.0
9867.0 336.0 0 207.7500933184025 339.0
9887.0 341.0 0 184.94540873460244 338.0
9909.0 336.0 0 162.1407241508025 337.0
9930.0 335.0 0 139.33603956700267 336.0
9952.0 296.0 0 116.53135498320273 335.0
9972.0 466.0 500 93.72667039940279 335.0
9994.0 303.0 0 70.92198581560284 334.0
10015.0 192.0 0 354.97363156937627 333.0
10037.0 275.0 500 639.0252773231497 332.0
10057.0 315.0 0 923.0769230769231 331.0
10079.0 335.0 0 878.041828481847 330.0
10100.0 302.0 0 833.0067338867709 329.0
10122.0 296.0 0 787.9716392916948 328.0
10142.0 326.0 0 742.9365446966189 327.0
10164.0 337.0 0 697.9014501015428 326.0
10185.0 351.0 0 652.8663555064667 325.0
10206.0 343.0 0 607.8312609113907 324.0
10227.0 326.0 0 562.7961663163146 323.0
10249.0 326.0 0 517.7610717212385 322.0
10290.0 326.0 0 472.7259771261624 322.0
10311.0 309.0 0 427.6908825310863 322.0
10333.0 338.0 0 382.65578793601026 322.0
10353.0 337.0 0 337.6206933409343 322.0
10375.0 337.0 0 292.5855987458582 322.0
10396.0 337.0 0 247.5505041507821 322.0
10418.0 430.0 500 202.51540955570601 321.0
10438.0 407.0 0 157.48031496062993 321.0
10460.0 260.0 0 155.66187273801077 321.0
10481.0 297.0 0 153.8434305153916 321.0
10503.0 365.0 0 152.02498829277243 321.0
10523.0 344.0 0 150.20654607015325 321.0
10545.0 376.0 0 148.3881038475341 321.0
10566.0 368.0 0 146.56966162491491 321.0
10588.0 381.0 0 144.75121940229576 320.0
10608.0 374.0 0 142.93277717967658 320.0
10630.0 391.0 0 141.11433495705742 320.0
10651.0 390.0 0 139.29589273443824 320.0
10673.0 370.0 0 137.4774505118191 320.0
10693.0 388.0 0 135.6590082891999 320.0
10715.0 394.0 0 133.84056606658075 320.0
10736.0 384.0 0 132.02212384396157 320.0
10757.0 384.0 0 130.2036816213424 320.0
10799.0 384.0 0 128.38523939872323 321.0
10820.0 314.0 0 126.56679717610407 321.0
10841.0 322.0 0 124.74835495348489 322.0
10862.0 343.0 0 122.92991273086574 322.0
10884.0 334.0 0 121.11147050824655 323.0
10904.0 334.0 0 119.2930282856274 323.0
10926.0 363.0 0 117.47458606300822 323.0
10947.0 376.0 0 115.65614384038906 324.0
10969.0 400.0 0 113.83770161776988 324.0
10989.0 384.0 0 112.01925939515073 325.0
11011.0 398.0 0 110.20081717253154 325.0
11032.0 402.0 0 108.38237494991239 326.0
11054.0 392.0 0 106.5639327272932 326.0
11074.0 405.0 0 104.74549050467405 327.0
11096.0 407.0 0 102.92704828205487 327.0
11117.0 388.0 0 101.10860605943571 328.0
11139.0 403.0 0 99.29016383681653 328.0
11159.0 405.0 0 97.47172161419738 329.0
11181.0 395.0 0 95.65327939157821 329.0
11202.0 413.0 0 93.83483716895904 330.0
11224.0 414.0 0 92.01639494633987 330.0
11244.0 404.0 0 90.19795272372069 330.0
11266.0 404.0 0 88.37951050110154 332.0
11307.0 404.0 0 86.56106827848235 333.0
11328.0 314.0 0 84.7426260558632 334.0
11350.0 327.0 0 82.92418383324402 336.0
11371.0 344.0 0 81.10574161062486 337.0
11392.0 343.0 0 79.28729938800569 338.0
11413.0 341.0 0 77.46885716538652 339.0
11435.0 347.0 0 75.65041494276736 340.0
11455.0 359.0 0 73.83197272014819 341.0
11477.0 353.0 0 72.01353049752902 342.0
11498.0 377.0 0 70.19508827490985 343.0
11520.0 361.0 0 68.37664605229068 344.0
11540.0 346.0 0 66.55820382967151 345.0
11562.0 334.0 0 64.73976160705234 346.0
11583.0 330.0 0 62.921319384433176 347.0
11605.0 345.0 0 61.10287716181401 348.0
11625.0 363.0 0 59.28443493919484 349.0
11647.0 371.0 0 57.46599271657567 350.0
11668.0 363.0 0 55.6475504939565 351.0
11690.0 305.0 0 53.82910827133733 352.0
11710.0 246.0 0 52.010666048718164 353.0
11732.0 209.0 0 50.192223826098996 354.0
11753.0 209.0 0 48.37378160347983 354.0
11794.0 209.0 0 46.55533938086066 354.0
11816.0 315.0 500 44.73689715824149 354.0
11837.0 327.0 0 42.918454935622314 354.0
11858.0 340.0 0 49.26009981848914 354.0
11879.0 342.0 0 55.60174470135596 354.0
11901.0 329.0 0 61.943389584222786 354.0
11922.0 301.0 0 68.2850344670896 353.0
11943.0 292.0 0 74.62667934995643 353.0
11964.0 284.0 0 80.96832423282325 353.0
11986.0 291.0 0 87.30996911569008 353.0
12006.0 284.0 0 93.6516139985569 353.0
12028.0 269.0 0 99.99325888142371 353.0
12049.0 287.0 0 106.33490376429054 353.0
12071.0 299.0 0 112.67654864715738 353.0
12091.0 329.0 0 119.01819353002418 352.0
12113.0 333.0 0 125.35983841289101 352.0
12134.0 311.0 0 131.70148329575784 352.0
12156.0 266.0 0 138.04312817862467 352.0
12176.0 219.0 0 144.38477306149147 352.0
12198.0 433.0 500 150.7264179443583 352.0
12219.0 236.0 0 157.06806282722513 352.0
12241.0 114.0 0 221.65445026178008 352.0
12261.0 114.0 0 286.24083769633506 351.0
12303.0 114.0 0 350.82722513089004 350.0
12323.0 316.0 500 415.41361256544496 349.0
12345.0 339.0 0 480.0 348.0
12367.0 330.0 0 468.2574618003325 347.0
12388.0 343.0 0 456.51492360066504 347.0
12408.0 330.0 0 444.77238540099756 346.0
12430.0 342.0 0 433.0298472013301 345.0
12451.0 350.0 0 421.28730900166255 344.0
12473.0 343.0 0 409.54477080199507 344.0
12493.0 367.0 0 397.8022326023276 343.0
12515.0 380.0 0 386.0596944026601 342.0
12536.0 376.0 0 374.31715620299263 342.0
12557.0 381.0 0 362.57461800332516 341.0
12578.0 368.0 0 350.8320798036576 340.0
12600.0 354.0 0 339.08954160399014 339.0
12621.0 370.0 0 327.34700340432266 339.0
12642.0 442.0 0 315.6044652046552 338.0
12663.0 231.0 0 303.8619270049877 337.0
12685.0 252.0 0 292.1193888053202 337.0
12706.0 331.0 0 280.37685060565275 336.0
12727.0 341.0 0 268.63431240598527 335.0
12748.0 341.0 0 256.8917742063178 334.0
12789.0 341.0 0 245.14923600665028 333.0
12811.0 317.0 0 233.4066978069828 333.0
12832.0 327.0 0 221.6641596073153 332.0
12854.0 343.0 0 209.92162140764782 332.0
12874.0 330.0 0 198.17908320798034 331.0
12896.0 343.0 0 186.43654500831286 331.0
12917.0 337.0 0 174.69400680864538 330.0
12939.0 366.0 0 162.9514686089779 329.0
12959.0 372.0 0 151.20893040931043 329.0
12981.0 387.0 0 139.46639220964295 328.0
13002.0 355.0 0 127.72385400997547 328.0
13024.0 357.0 0 115.98131581030793 327.0
13044.0 330.0 0 104.23877761064045 327.0
13066.0 461.0 500 92.49623941097298 326.0
13087.0 346.0 0 80.75370121130551 326.0
13108.0 273.0 0 371.29611826785447 325.0
13129.0 356.0 500 661.8385353244034 325.0
13151.0 385.0 0 952.3809523809524 324.0
13172.0 417.0 0 909.7035040431267 323.0
13193.0 390.0 0 867.026055705301 323.0
13214.0 411.0 0 824.3486073674753 322.0
13236.0 416.0 0 781.6711590296496 322.0
13257.0 416.0 0 738.9937106918239 321.0
13298.0 416.0 0 696.3162623539982 321.0
13320.0 315.0 0 653.6388140161725 320.0
13340.0 339.0 0 610.9613656783467 320.0
13362.0 330.0 0 568.2839173405212 320.0
13383.0 341.0 0 525.6064690026953 319.0
13405.0 331.0 0 482.9290206648697 319.0
13425.0 334.0 0 440.2515723270441 319.0
13447.0 310.0 0 397.57412398921826 318.0
13468.0 312.0 0 354.8966756513927 318.0
13490.0 379.0 0 312.2192273135669 318.0
13510.0 417.0 0 269.5417789757412 317.0
13532.0 242.0 0 226.8643306379155 317.0
13553.0 294.0 500 184.1868823000898 317.0
13575.0 374.0 0 141.50943396226415 316.0
13595.0 385.0 0 142.44889755040333 316.0
13617.0 384.0 0 143.38836113854248 316.0
13638.0 404.0 0 144.32782472668165 315.0
13660.0 414.0 0 145.2672883148208 315.0
13680.0 408.0 0 146.20675190295998 315.0
13702.0 417.0 0 147.14621549109913 314.0
13723.0 420.0 0 148.0856790792383 314.0
13744.0 408.0 0 149.02514266737745 314.0
13765.0 408.0 0 149.96460625551663 313.0
13806.0 408.0 0 150.90406984365578 312.0
13828.0 313.0 0 151.84353343179495 311.0
13849.0 324.0 0 152.7829970199341 310.0
13871.0 337.0 0 153.72246060807328 309.0
13891.0 339.0 0 154.66192419621242 309.0
13913.0 327.0 0 155.6013877843516 308.0
13934.0 394.0 500 156.54085137249075 307.0
13956.0 145.0 0 157.48031496062993 307.0
13976.0 145.0 0 157.57860194141358 306.0
13998.0 66.0 0 157.67688892219726 305.0
14018.0 86.0 0 157.77517590298092 305.0
14039.0 81.0 0 157.8734628837646 304.0
14058.0 89.0 0 157.97174986454826 303.0
14079.0 111.0 0 158.0700368453319 303.0
14100.0 121.0 0 158.1683238261156 302.0
14121.0 126.0 0 158.26661080689925 301.0
14142.0 139.0 0 158.36489778768293 301.0
14164.0 106.0 0 158.4631847684666 300.0
14185.0 114.0 0 158.56147174925027 299.0
14206.0 125.0 0 158.65975873003393 299.0
14227.0 169.0 0 158.75804571081758 298.0
14249.0 169.0 0 158.85633269160127 297.0
14290.0 169.0 0 158.95461967238492 297.0
14311.0 310.0 500 159.0529066531686 297.0
14333.0 334.0 0 159.15119363395226 297.0
14353.0 343.0 0 240.52850207697313 297.0
14375.0 339.0 0 321.905810519994 296.0
14396.0 334.0 0 403.2831189630149 296.0
14417.0 407.0 500 484.66042740603575 296.0
14438.0 397.0 0 566.0377358490566 296.0
14460.0 393.0 0 549.7774066465505 296.0
14481.0 393.0 0 533.5170774440443 296.0
14502.0 403.0 0 517.2567482415382 295.0
14523.0 402.0 0 500.996419039032 295.0
14545.0 439.0 0 484.7360898365258 295.0
14566.0 401.0 0 468.47576063401965 295.0
14587.0 401.0 0 452.2154314315135 295.0
14608.0 402.0 0 435.95510222900737 295.0
14630.0 402.0 0 419.69477302650114 294.0
14651.0 401.0 0 403.434443823995 294.0
14672.0 383.0 0 387.17411462148885 294.0
14693.0 413.0 0 370.9137854189827 294.0
14715.0 400.0 0 354.6534562164765 294.0
14736.0 404.0 0 338.39312701397034 294.0
14757.0 404.0 0 322.13279781146423 295.0
14799.0 404.0 0 305.87246860895806 299.0
14819.0 306.0 0 289.6121394064519 301.0
14840.0 337.0 0 273.3518102039457 303.0
14862.0 337.0 0 257.09148100143955 305.0
14883.0 330.0 0 240.83115179893338 307.0
14904.0 339.0 0 224.57082259642726 309.0
14925.0 339.0 0 208.3104933939211 311.0
14947.0 336.0 0 192.05016419141492 313.0
14967.0 316.0 0 175.78983498890875 315.0
14989.0 324.0 0 159.52950578640264 317.0
15010.0 346.0 0 143.2691765838964 319.0
15032.0 297.0 0 127.0088473813903 322.0
15052.0 337.0 500 110.74851817888407 324.0
15074.0 312.0 0 94.48818897637796 326.0
15095.0 313.0 0 126.79481241315423 328.0
15117.0 343.0 0 159.1014358499305 330.0
15137.0 341.0 0 191.40805928670682 332.0
15159.0 337.0 0 223.7146827234831 334.0
15180.0 315.0 0 256.02130616025937 336.0
15202.0 256.0 0 288.3279295970357 338.0
15222.0 383.0 500 320.6345530338119 340.0
15244.0 337.0 0 352.94117647058823 342.0
15265.0 337.0 0 341.20818138576186 343.0
15306.0 337.0 0 329.4751863009355 345.0
15328.0 311.0 0 317.74219121610906 346.0
15349.0 322.0 0 306.0091961312827 346.0
15370.0 339.0 0 294.2762010464563 347.0
15391.0 326.0 0 282.54320596162995 348.0
15413.0 345.0 0 270.8102108768036 349.0
15434.0 325.0 0 259.0772157919772 350.0
15455.0 354.0 0 247.34422070715078 350.0
15476.0 367.0 0 235.6112256223244 351.0
15498.0 340.0 0 223.878230537498 352.0
15518.0 334.0 0 212.14523545267164 353.0
15540.0 377.0 500 200.41224036784524 354.0
15561.0 408.0 0 188.67924528301887 355.0
15583.0 373.0 0 235.3577044025157 355.0
15603.0 379.0 0 282.03616352201254 356.0
15625.0 382.0 0 328.71462264150944 357.0
15646.0 320.0 0 375.3930817610063 358.0
15668.0 414.0 500 422.07154088050316 359.0
15688.0 241.0 0 468.75 359.0
15710.0 256.0 0 451.5444195595371 360.0
15731.0 314.0 0 434.3388391190743 361.0
15753.0 314.0 0 417.1332586786114 361.0
15794.0 314.0 0 399.9276782381486 361.0
15815.0 313.0 0 382.7220977976857 361.0
15836.0 333.0 0 365.5165173572229 360.0
15857.0 339.0 0 348.31093691676 360.0
15879.0 335.0 0 331.1053564762972 360.0
15900.0 339.0 0 313.8997760358343 360.0
15921.0 339.0 0 296.6941955953714 359.0
15942.0 298.0 0 279.48861515490853 359.0
15964.0 326.0 0 262.28303471444576 359.0
15985.0 347.0 0 245.07745427398285 359.0
16006.0 363.0 0 227.87187383352 358.0
16027.0 323.0 0 210.66629339305712 358.0
16049.0 304.0 0 193.4607129525943 358.0
16069.0 255.0 0 176.2551325121314 358.0
16091.0 433.0 500 159.0495520716686 357.0
16112.0 243.0 0 141.84397163120568 357.0
16134.0 190.0 0 153.52164343360235 357.0
16154.0 215.0 0 165.19931523599902 357.0
16176.0 243.0 0 176.8769870383957 356.0
16197.0 245.0 0 188.5546588407924 356.0
16219.0 210.0 0 200.23233064318907 356.0
16239.0 243.0 0 211.91000244558575 356.0
16261.0 243.0 0 223.58767424798242 355.0
16302.0 243.0 0 235.2653460503791 355.0
16323.0 304.0 500 246.94301785277577 355.0
16345.0 339.0 0 258.62068965517244 354.0
16366.0 343.0 0 264.6072796934866 354.0
16387.0 330.0 0 270.5938697318008 354.0
16408.0 341.0 0 276.58045977011494 354.0
16430.0 339.0 0 282.56704980842915 353.0
16451.0 367.0 0 288.5536398467433 353.0
16472.0 241.0 0 294.5402298850575 353.0
16493.0 235.0 0 300.52681992337165 353.0
16515.0 487.0 500 306.51340996168585 352.0
16536.0 470.0 0 312.5 352.0
16556.0 484.0 0 340.4166666666667 352.0
16576.0 385.0 0 368.3333333333333 352.0
16598.0 222.0 0 396.25 351.0
16618.0 180.0 0 424.16666666666663 351.0
16640.0 252.0 500 452.08333333333337 351.0
16661.0 280.0 0 480.0 351.0
16683.0 356.0 0 460.4166666666667 350.0
16703.0 258.0 0 440.8333333333333 350.0
16725.0 291.0 0 421.25 350.0
16746.0 291.0 0 401.66666666666663 349.0
16787.0 291.0 0 382.0833333333333 348.0
16809.0 311.0 0 362.5 347.0
16830.0 340.0 0 342.91666666666663 346.0
16851.0 340.0 0 323.3333333333333 345.0
16872.0 337.0 0 303.75 344.0
16894.0 344.0 0 284.16666666666663 343.0
16915.0 348.0 0 264.5833333333333 342.0
16936.0 444.0 0 244.99999999999997 341.0
16957.0 358.0 0 225.41666666666663 340.0
16979.0 215.0 0 205.83333333333331 339.0
17000.0 289.0 500 186.24999999999994 338.0
17021.0 362.0 0 166.66666666666666 337.0
17042.0 391.0 0 303.57142857142856 336.0
17064.0 327.0 0 440.4761904761905 335.0
17084.0 386.0 500 577.3809523809524 335.0
17106.0 358.0 0 714.2857142857143 334.0
17127.0 415.0 500 1054.8172757475083 333.0
17149.0 396.0 0 1395.3488372093022 332.0
17169.0 417.0 0 1343.9385534457008 331.0
17191.0 515.0 0 1292.5282696820993 330.0
17212.0 397.0 0 1241.1179859184979 329.0
17234.0 337.0 0 1189.7077021548964 328.0
17254.0 337.0 0 1138.297418391295 328.0
17296.0 337.0 0 1086.8871346276935 328.0
17317.0 316.0 0 1035.476850864092 328.0
17338.0 335.0 0 984.0665671004906 329.0
17360.0 329.0 0 932.6562833368893 329.0
17381.0 339.0 0 881.2459995732878 329.0
17402.0 337.0 0 829.8357158096863 329.0
17423.0 268.0 0 778.4254320460849 330.0
17443.0 268.0 0 727.0151482824834 330.0
17463.0 268.0 0 675.604864518882 330.0
17483.0 268.0 0 624.1945807552805 330.0
17504.0 268.0 0 572.7842969916791 331.0
17524.0 252.0 0 521.3740132280776 331.0
17544.0 136.0 0 469.9637294644763 331.0
17565.0 136.0 0 418.5534457008747 331.0
17587.0 136.0 0 367.14316193727336 332.0
17607.0 136.0 0 315.7328781736719 332.0
17629.0 136.0 0 264.32259441007045 332.0
17650.0 106.0 0 212.912310646469 332.0
17672.0 168.0 500 161.50202688286754 333.0
17692.0 168.0 0 110.09174311926606 333.0
17715.0 106.0 0 381.0868031051517 333.0
17737.0 185.0 500 652.0818630910373 333.0
17760.0 185.0 0 923.0769230769231 333.0
17802.0 185.0 0 845.2696728558798 333.0
17824.0 314.0 500 767.4624226348365 332.0
17847.0 341.0 0 689.6551724137931 332.0
17869.0 340.0 0 658.8669950738916 332.0
17891.0 340.0 0 628.0788177339901 331.0
17914.0 340.0 0 597.2906403940887 331.0
17936.0 413.0 500 566.5024630541872 331.0
17959.0 496.0 0 535.7142857142857 331.0
17981.0 209.0 0 655.6503198294242 330.0
18003.0 355.0 500 775.5863539445629 330.0
18025.0 356.0 0 895.5223880597015 330.0
18048.0 185.0 0 895.5223880597015 329.0
18070.0 351.0 500 895.5223880597015 329.0
18093.0 381.0 0 895.5223880597015 329.0
18114.0 359.0 0 830.6615072784227 328.0
18137.0 396.0 0 765.8006264971439 328.0
18159.0 215.0 0 700.9397457158651 328.0
18182.0 231.0 0 636.0788649345864 327.0
18204.0 457.0 0 571.2179841533075 327.0
18226.0 255.0 0 506.3571033720287 327.0
18248.0 255.0 0 441.49622259074994 326.0
18291.0 255.0 0 376.63534180947113 326.0
18313.0 307.0 500 311.77446102819226 326.0
18335.0 328.0 0 246.91358024691357 326.0
18358.0 335.0 0 242.9692738531929 326.0
18380.0 334.0 0 239.02496745947224 326.0
18403.0 340.0 0 235.08066106575157 326.0
18424.0 340.0 0 231.1363546720309 325.0
18447.0 329.0 0 227.19204827831024 325.0
18470.0 340.0 0 223.24774188458957 325.0
18492.0 355.0 0 219.30343549086894 325.0
18515.0 376.0 0 215.35912909714827 325.0
18536.0 375.0 0 211.4148227034276 325.0
18559.0 355.0 0 207.47051630970694 325.0
18581.0 355.0 0 203.52620991598627 324.0
18604.0 285.0 0 199.5819035222656 324.0
18626.0 447.0 500 195.63759712854494 324.0
18648.0 205.0 0 191.69329073482427 324.0
18670.0 177.0 0 426.3029898431167 324.0
18693.0 265.0 500 660.9126889514091 324.0
18715.0 271.0 0 895.5223880597015 324.0
18738.0 260.0 0 807.3270013568521 324.0
18760.0 260.0 0 719.1316146540028 325.0
18802.0 260.0 0 630.9362279511533 329.0
18825.0 321.0 500 542.7408412483039 332.0
18846.0 339.0 0 454.54545454545456 334.0
18869.0 340.0 0 437.20789989446706 336.0
18891.0 340.0 0 419.8703452434796 339.0
18914.0 341.0 0 402.5327905924921 341.0
18936.0 385.0 0 385.1952359415046 343.0
18958.0 360.0 0 367.8576812905171 346.0
18981.0 357.0 0 350.5201266395296 348.0
19003.0 248.0 0 333.1825719885421 350.0
19026.0 292.0 500 315.8450173375547 353.0
19048.0 409.0 0 298.5074626865672 355.0
19070.0 107.0 0 502.0352781546811 357.0
19092.0 173.0 500 705.5630936227951 360.0
19115.0 280.0 0 909.0909090909091 362.0
19137.0 300.0 0 859.7524541186514 364.0
19160.0 258.0 0 810.4139991463935 367.0
19181.0 288.0 0 761.0755441741358 369.0
19204.0 311.0 0 711.737089201878 371.0
19226.0 311.0 0 662.3986342296201 374.0
19249.0 311.0 0 613.0601792573623 375.0
19291.0 311.0 0 563.7217242851045 373.0
19313.0 322.0 0 514.3832693128468 371.0
19336.0 342.0 0 465.04481434058897 370.0
19358.0 334.0 0 415.70635936833116 368.0
19380.0 336.0 0 366.3679043960734 367.0
19402.0 330.0 0 317.02944942381555 366.0
19425.0 205.0 0 267.6909944515578 364.0
19447.0 439.0 500 218.35253947929994 363.0
19470.0 284.0 0 169.01408450704224 362.0
19491.0 125.0 0 411.18351902459534 360.0
19514.0 186.0 500 653.3529535421485 359.0
19537.0 237.0 0 895.5223880597015 357.0
19559.0 246.0 0 825.4815308930209 356.0
19582.0 316.0 0 755.4406737263404 355.0
19603.0 277.0 0 685.3998165596598 353.0
19626.0 270.0 0 615.3589593929793 352.0
19648.0 304.0 0 545.3181022262987 351.0
19671.0 299.0 0 475.27724505961817 349.0
19693.0 387.0 500 405.2363878929376 348.0
19716.0 306.0 0 335.195530726257 346.0
19737.0 262.0 0 360.4641168886979 345.0
19760.0 262.0 0 385.73270305113886 345.0
19802.0 257.0 0 411.00128921357975 345.0
19823.0 320.0 500 436.26987537602065 346.0
19846.0 333.0 0 461.53846153846155 346.0
19868.0 330.0 0 459.2422502870264 346.0
19891.0 330.0 0 456.9460390355913 347.0
19912.0 342.0 0 454.6498277841562 347.0
19935.0 327.0 0 452.353616532721 347.0
19957.0 411.0 500 450.05740528128587 347.0
19980.0 254.0 0 447.76119402985074 348.0
20002.0 120.0 0 597.0149253731342 348.0
20024.0 244.0 500 746.2686567164178 348.0
20047.0 364.0 0 895.5223880597015 349.0
20069.0 386.0 0 838.3084577114428 349.0
20092.0 221.0 0 781.094527363184 349.0
20114.0 423.0 500 723.8805970149253 350.0
20136.0 334.0 0 666.6666666666666 350.0
20158.0 320.0 0 640.4761904761905 350.0
20181.0 324.0 0 614.2857142857142 351.0
20203.0 267.0 0 588.0952380952381 351.0
20226.0 419.0 500 561.9047619047618 351.0
20248.0 419.0 0 535.7142857142857 351.0
20290.0 419.0 0 506.6287878787878 349.0
20313.0 312.0 0 477.54329004328997 348.0
20334.0 337.0 0 448.4577922077922 346.0
20357.0 342.0 0 419.37229437229433 345.0
20379.0 342.0 0 390.2867965367965 344.0
20402.0 328.0 0 361.2012987012987 342.0
20424.0 510.0 500 332.11580086580085 341.0
20446.0 554.0 0 303.030303030303 340.0
20468.0 434.0 0 395.81205311542385 339.0
20491.0 395.0 0 488.59380320054476 337.0
20513.0 506.0 500 581.3755532856657 336.0
20536.0 164.0 0 674.1573033707865 335.0
20557.0 174.0 0 672.2846441947565 333.0
20580.0 162.0 0 670.4119850187266 332.0
20603.0 331.0 500 668.5393258426966 331.0
20625.0 531.0 0 666.6666666666666 329.0
20648.0 468.0 0 668.5393258426966 328.0
20670.0 406.0 0 670.4119850187266 327.0
20692.0 535.0 500 672.2846441947565 326.0
20714.0 207.0 0 674.1573033707865 324.0
20737.0 432.0 500 1003.7453183520599 323.0
20759.0 432.0 0 1333.3333333333333 322.0
20801.0 432.0 0 1224.6913580246912 322.0
20824.0 303.0 0 1116.0493827160494 321.0
20846.0 328.0 0 1007.4074074074074 321.0
20868.0 329.0 0 898.7654320987654 321.0
20890.0 338.0 0 790.1234567901234 320.0
20913.0 334.0 0 681.4814814814815 320.0
20935.0 160.0 0 572.8395061728396 320.0
20958.0 151.0 0 464.19753086419746 320.0
20980.0 344.0 500 355.55555555555554 319.0
21002.0 329.0 0 246.91358024691357 319.0
21024.0 158.0 0 463.1165161845096 319.0
21047.0 309.0 500 679.3194521221055 318.0
21069.0 309.0 0 895.5223880597015 318.0
21092.0 408.0 500 1114.4278606965174 318.0
21114.0 368.0 0 1333.3333333333333 317.0
21135.0 368.0 0 1172.4137931034481 317.0
21157.0 297.0 0 1011.4942528735633 317.0
21179.0 354.0 500 850.5747126436781 316.0
21201.0 100.0 0 689.6551724137931 316.0
21223.0 448.0 500 1026.6457680250785 316.0
21246.0 448.0 0 1363.6363636363637 315.0
21288.0 448.0 0 1251.8628912071536 315.0
21310.0 319.0 0 1140.0894187779434 315.0
21333.0 335.0 0 1028.3159463487334 315.0
21355.0 324.0 0 916.5424739195232 315.0
21378.0 327.0 0 804.769001490313 314.0
21399.0 328.0 0 692.995529061103 314.0
21422.0 421.0 0 581.2220566318928 314.0
21444.0 376.0 0 469.4485842026826 314.0
21467.0 450.0 500 357.6751117734724 314.0
21489.0 504.0 0 245.9016393442623 314.0
21511.0 317.0 0 466.9647292598112 313.0
21533.0 361.0 500 688.0278191753602 313.0
21556.0 311.0 0 909.0909090909091 313.0
21578.0 395.0 500 1121.2121212121212 313.0
21601.0 360.0 0 1333.3333333333333 313.0
21623.0 407.0 500 1333.3333333333333 312.0
21645.0 455.0 0 1333.3333333333333 312.0
21667.0 472.0 0 1166.6666666666665 312.0
21690.0 243.0 0 1000.0 312.0
21713.0 401.0 500 833.3333333333333 312.0
21735.0 483.0 0 666.6666666666666 312.0
21757.0 483.0 0 624.793388429752 311.0
21800.0 483.0 0 582.9201101928375 310.0
21822.0 310.0 0 541.0468319559228 309.0
21844.0 328.0 0 499.1735537190082 308.0
21866.0 334.0 0 457.30027548209364 308.0
21889.0 329.0 0 415.42699724517905 307.0
21911.0 325.0 0 373.55371900826447 306.0
21934.0 176.0 0 331.6804407713498 305.0
21955.0 229.0 500 289.80716253443524 305.0
21978.0 316.0 0 247.93388429752065 304.0
22000.0 223.0 0 459.4069032571706 303.0
22023.0 321.0 500 670.8799222168207 303.0
22045.0 342.0 0 882.3529411764706 302.0
22067.0 470.0 0 830.3040317250495 301.0
22089.0 310.0 0 778.2551222736286 300.0
22112.0 367.0 500 726.2062128222076 300.0
22134.0 320.0 0 674.1573033707865 299.0
22157.0 377.0 500 1003.7453183520599 298.0
22178.0 362.0 0 1333.3333333333333 298.0
22201.0 403.0 500 1348.4848484848485 297.0
22224.0 395.0 0 1363.6363636363637 296.0
22246.0 395.0 0 1242.287124640066 295.0
22288.0 395.0 0 1120.9378856437681 294.0
22311.0 320.0 0 999.5886466474703 294.0
22333.0 336.0 0 878.2394076511725 293.0
22356.0 339.0 0 756.8901686548746 293.0
22377.0 339.0 0 635.5409296585768 292.0
22400.0 337.0 0 514.1916906622789 292.0
22422.0 390.0 500 392.84245166598123 291.0
22445.0 239.0 0 271.49321266968326 291.0
22467.0 453.0 500 802.4132730015083 290.0
22489.0 360.0 0 1333.3333333333333 290.0
22511.0 369.0 0 1197.8021978021977 289.0
22534.0 401.0 0 1062.2710622710622 289.0
22556.0 433.0 0 926.7399267399267 288.0
22579.0 405.0 0 791.2087912087912 287.0
22600.0 401.0 0 655.6776556776557 287.0
22623.0 465.0 500 520.1465201465202 286.0
22645.0 407.0 0 384.61538461538464 286.0
22668.0 385.0 0 457.0008643042351 285.0
22690.0 366.0 0 529.3863439930856 285.0
22712.0 470.0 500 601.771823681936 284.0
22735.0 366.0 0 674.1573033707865 284.0
22757.0 366.0 0 638.8732231428861 285.0
22799.0 366.0 0 603.5891429149856 289.0
22822.0 319.0 0 568.3050626870852 291.0
22844.0 337.0 0 533.0209824591847 293.0
22867.0 334.0 0 497.73690223128426 295.0
22889.0 333.0 0 462.4528220033838 297.0
22911.0 336.0 0 427.16874177548334 299.0
22933.0 191.0 0 391.8846615475829 301.0
22956.0 143.0 0 356.6005813196824 303.0
22978.0 160.0 0 321.31650109178196 305.0
23001.0 231.0 0 286.03242086388155 308.0
23022.0 164.0 0 250.7483406359811 310.0
23045.0 263.0 500 215.46426040808063 312.0
23067.0 213.0 0 180.18018018018017 314.0
23090.0 181.0 0 418.62758280668726 316.0
23112.0 254.0 500 657.0749854331943 318.0
23134.0 371.0 0 895.5223880597015 320.0
23156.0 290.0 0 842.0963364993215 322.0
23178.0 116.0 0 788.6702849389417 324.0
23200.0 255.0 500 735.2442333785618 326.0
23223.0 188.0 0 681.8181818181819 328.0
23244.0 315.0 500 1022.7272727272727 330.0
23267.0 315.0 0 1363.6363636363637 330.0
23310.0 315.0 0 1267.3010380622839 329.0
23331.0 318.0 0 1170.965712488204 328.0
23354.0 322.0 0 1074.630386914124 327.0
23377.0 329.0 0 978.2950613400442 327.0
23399.0 329.0 0 881.9597357659642 326.0
23422.0 333.0 0 785.6244101918843 326.0
23443.0 333.0 0 689.2890846178043 325.0
23466.0 273.0 0 592.9537590437245 324.0
23488.0 268.0 0 496.6184334696445 324.0
23511.0 266.0 0 400.2831078955646 323.0
23533.0 420.0 500 303.94778232148474 322.0
23555.0 279.0 0 207.61245674740485 322.0
23577.0 171.0 0 223.7957311146534 321.0
23600.0 204.0 0 239.97900548190194 321.0
23622.0 247.0 0 256.1622798491505 320.0
23645.0 272.0 0 272.345554216399 319.0
23666.0 303.0 0 288.5288285836476 319.0
23689.0 224.0 0 304.71210295089617 318.0
23711.0 288.0 500 320.8953773181447 317.0
23734.0 305.0 0 337.07865168539325 317.0
23756.0 305.0 0 325.9899896339074 316.0
23798.0 305.0 0 314.9013275824216 315.0
23821.0 312.0 0 303.8126655309357 315.0
23843.0 331.0 0 292.72400347944983 314.0
23865.0 339.0 0 281.635341427964 313.0
23888.0 333.0 0 270.54667937647815 313.0
23910.0 330.0 0 259.4580173249923 312.0
23933.0 347.0 0 248.36935527350641 312.0
23955.0 455.0 0 237.2806932220206 311.0
23977.0 251.0 0 226.19203117053473 310.0
23999.0 233.0 0 215.1033691190489 310.0
24022.0 310.0 500 204.01470706756302 309.0
24044.0 324.0 0 192.92604501607718 309.0
24067.0 330.0 0 313.2338596047545 308.0
24088.0 322.0 0 433.54167419343185 308.0
24111.0 383.0 500 553.8494887821091 307.0
24133.0 377.0 0 674.1573033707865 306.0
24156.0 331.0 0 643.3466349283652 306.0
24178.0 369.0 0 612.5359664859438 305.0
24200.0 367.0 0 581.7252980435226 305.0
24222.0 358.0 0 550.9146296011012 304.0
24245.0 358.0 0 520.1039611586799 304.0
24287.0 358.0 0 489.2932927162586 303.0
24309.0 323.0 0 458.48262427383725 302.0
24332.0 337.0 0 427.67195583141597 302.0
24354.0 338.0 0 396.86128738899464 301.0
24377.0 332.0 0 366.0506189465733 301.0
24399.0 340.0 0 335.239950504152 300.0
24421.0 349.0 0 304.42928206173065 300.0
24444.0 367.0 0 273.6186136193094 299.0
24466.0 392.0 0 242.80794517688804 299.0
24489.0 326.0 0 211.9972767344667 298.0
24510.0 367.0 500 181.18660829204538 298.0
24533.0 364.0 0 150.37593984962405 297.0
24555.0 375.0 0 149.28112572652185 297.0
24578.0 386.0 0 148.18631160341968 296.0
24600.0 385.0 0 147.09149748031749 296.0
24622.0 351.0 0 145.9966833572153 295.0
24644.0 349.0 0 144.90186923411312 295.0
24667.0 374.0 0 143.80705511101092 294.0
24689.0 371.0 0 142.71224098790873 294.0
24712.0 363.0 0 141.61742686480653 293.0
24733.0 356.0 0 140.52261274170436 293.0
24756.0 356.0 0 139.42779861860217 293.0
24799.0 356.0 0 138.33298449549997 296.0
24820.0 314.0 0 137.2381703723978 297.0
24843.0 328.0 0 136.1433562492956 298.0
24865.0 329.0 0 135.0485421261934 300.0
24888.0 329.0 0 133.95372800309121 301.0
24911.0 330.0 0 132.85891387998905 302.0
24932.0 319.0 0 131.76409975688685 304.0
24955.0 311.0 0 130.66928563378465 305.0
24977.0 354.0 500 129.57447151068249 306.0
25000.0 356.0 0 128.4796573875803 308.0
25022.0 340.0 0 147.3716357541344 309.0
25044.0 339.0 0 166.2636141206885 310.0
25066.0 331.0 0 185.1555924872426 312.0
25089.0 351.0 0 204.04757085379669 313.0
25111.0 354.0 0 222.93954922035078 314.0
25134.0 279.0 0 241.83152758690488 316.0
25155.0 232.0 0 260.723505953459 317.0
25178.0 477.0 500 279.6154843200131 318.0
25200.0 175.0 0 298.5074626865672 320.0
25223.0 179.0 0 314.1156960296557 321.0
25244.0 264.0 0 329.7239293727441 322.0
25266.0 264.0 0 345.3321627158326 324.0
25309.0 264.0 0 360.9403960589211 326.0
25331.0 320.0 500 376.5486294020096 327.0
25353.0 339.0 0 392.15686274509807 329.0
25375.0 340.0 0 377.9533704028876 330.0
25398.0 343.0 0 363.749878060677 331.0
25420.0 338.0 0 349.5463857184665 333.0
25443.0 295.0 0 335.342893376256 334.0
25464.0 297.0 0 321.1394010340455 335.0
25487.0 331.0 0 306.9359086918349 337.0
25510.0 341.0 0 292.73241634962443 338.0
25532.0 262.0 0 278.52892400741393 339.0
25555.0 238.0 0 264.3254316652034 340.0
25576.0 259.0 0 250.1219393229929 342.0
25599.0 388.0 0 235.9184469807824 343.0
25621.0 136.0 0 221.71495463857184 344.0
25644.0 132.0 0 207.51146229636132 346.0
25666.0 196.0 500 193.30796995415082 347.0
25688.0 206.0 0 179.1044776119403 348.0
25710.0 219.0 0 214.18879627834852 349.0
25733.0 243.0 0 249.27311494475674 351.0
25755.0 243.0 0 284.357433611165 351.0
25797.0 243.0 0 319.4417522775732 349.0
25820.0 311.0 500 354.5260709439814 348.0
25842.0 331.0 0 389.61038961038963 347.0
25865.0 337.0 0 383.0439223697651 346.0
25886.0 342.0 0 376.47745512914054 345.0
25909.0 341.0 0 369.910987888516 344.0
25931.0 299.0 0 363.34452064789144 343.0
25954.0 229.0 0 356.7780534072669 342.0
25976.0 201.0 0 350.21158616664235 341.0
25998.0 452.0 500 343.6451189260178 340.0
26021.0 193.0 0 337.07865168539325 339.0
26043.0 111.0 0 518.836748182419 338.0
26066.0 191.0 500 700.5948446794448 337.0
26088.0 214.0 0 882.3529411764706 336.0
26110.0 207.0 0 839.2954705101855 335.0
26132.0 226.0 0 796.2379998439004 334.0
26155.0 248.0 0 753.1805291776153 333.0
26177.0 264.0 0 710.1230585113302 332.0
26200.0 262.0 0 667.0655878450451 331.0
26221.0 263.0 0 624.00811717876 330.0
26244.0 293.0 0 580.950646512475 329.0
26266.0 293.0 0 537.8931758461899 329.0
26308.0 293.0 0 494.8357051799048 331.0
26331.0 320.0 0 451.7782345136197 332.0
26353.0 342.0 0 408.7207638473346 333.0
26376.0 341.0 0 365.6632931810494 333.0
26398.0 340.0 0 322.60582251476444 334.0
26420.0 336.0 0 279.54835184847934 335.0
26442.0 281.0 0 236.49088118219424 336.0
26465.0 324.0 500 193.43341051590915 337.0
26487.0 389.0 0 150.37593984962405 338.0
26510.0 365.0 0 148.22091857480856 339.0
26531.0 380.0 0 146.06589729999308 339.0
26554.0 366.0 0 143.91087602517763 340.0
26577.0 362.0 0 141.75585475036215 341.0
26599.0 365.0 0 139.60083347554666 342.0
26622.0 369.0 0 137.44581220073118 343.0
26643.0 395.0 0 135.2907909259157 344.0
26666.0 390.0 0 133.13576965110025 344.0
26688.0 368.0 0 130.98074837628477 345.0
26711.0 394.0 0 128.82572710146928 346.0
26733.0 387.0 0 126.67070582665382 347.0
26755.0 387.0 0 124.51568455183833 347.0
26798.0 387.0 0 122.36066327702287 345.0
26820.0 321.0 0 120.20564200220738 343.0
26842.0 340.0 0 118.0506207273919 342.0
26864.0 337.0 0 115.89559945257642 341.0
26887.0 337.0 0 113.74057817776097 340.0
26909.0 341.0 0 111.58555690294548 339.0
26932.0 368.0 0 109.43053562813 337.0
26953.0 370.0 0 107.27551435331452 336.0
26976.0 387.0 0 105.12049307849905 335.0
26998.0 377.0 0 102.96547180368358 334.0
27021.0 377.0 0 100.8104505288681 333.0
27043.0 376.0 0 98.65542925405262 331.0
27065.0 375.0 0 96.50040797923714 330.0
27088.0 382.0 0 94.34538670442167 329.0
27110.0 384.0 0 92.19036542960619 328.0
27133.0 373.0 0 90.03534415479072 327.0
27155.0 363.0 0 87.88032287997524 325.0
27177.0 357.0 0 85.72530160515977 324.0
27199.0 322.0 0 83.57028033034429 323.0
27222.0 457.0 500 81.41525905552881 322.0
27244.0 283.0 0 79.26023778071334 321.0
27267.0 283.0 0 83.4435143730022 320.0
27309.0 283.0 0 87.62679096529106 318.0
27331.0 319.0 0 91.81006755757994 317.0
27354.0 338.0 0 95.9933441498688 317.0
27375.0 340.0 0 100.17662074215767 316.0
27398.0 340.0 0 104.35989733444653 315.0
27420.0 340.0 0 108.54317392673539 314.0
27443.0 357.0 0 112.72645051902427 313.0
27465.0 350.0 0 116.90972711131312 313.0
27487.0 353.0 0 121.093003703602 312.0
27509.0 363.0 0 125.27628029589086 311.0
27532.0 374.0 0 129.45955688817972 310.0
27554.0 353.0 0 133.6428334804686 309.0
27577.0 328.0 0 137.82611007275744 309.0
27599.0 292.0 0 142.00938666504632 308.0
27621.0 453.0 500 146.1926632573352 307.0
27644.0 333.0 0 150.37593984962405 306.0
27666.0 184.0 0 394.36827362523957 305.0
27689.0 290.0 500 638.3606074008551 305.0
27711.0 338.0 0 882.3529411764706 304.0
27733.0 343.0 0 832.2755083906675 303.0
27755.0 343.0 0 782.1980756048644 303.0
27797.0 343.0 0 732.1206428190612 303.0
27820.0 321.0 0 682.043210033258 303.0
27842.0 342.0 0 631.9657772474549 303.0
27865.0 340.0 0 581.8883444616517 303.0
27887.0 343.0 0 531.8109116758486 303.0
27909.0 341.0 0 481.7334788900455 303.0
27931.0 363.0 0 431.6560461042423 303.0
27954.0 356.0 0 381.5786133184392 303.0
27976.0 364.0 0 331.5011805326361 303.0
27999.0 348.0 0 281.423747746833 303.0
28020.0 412.0 500 231.34631496102975 303.0
28043.0 424.0 0 181.2688821752266 303.0
28065.0 333.0 0 414.9635685089746 303.0
28088.0 395.0 500 648.6582548427226 303.0
28111.0 398.0 0 882.3529411764706 303.0
28132.0 404.0 0 818.9110354885756 303.0
28155.0 407.0 0 755.4691298006805 303.0
28177.0 414.0 0 692.0272241127857 303.0
28200.0 405.0 0 628.5853184248906 303.0
28222.0 431.0 0 565.1434127369956 303.0
28244.0 413.0 0 501.70150704910066 303.0
28266.0 413.0 0 438.2596013612057 303.0
28309.0 54.0 0 374.8176956733106 303.0
28330.0 312.0 500 311.3757899854156 304.0
28352.0 337.0 0 247.93388429752065 304.0
28375.0 333.0 0 242.0429184968993 304.0
28397.0 326.0 0 236.15195269627793 304.0
28419.0 328.0 0 230.26098689565657 305.0
28441.0 374.0 0 224.3700210950352 305.0
28464.0 51.0 0 218.47905529441385 305.0
28485.0 51.0 0 212.5880894937925 305.0
28507.0 51.0 0 206.69712369317114 306.0
28527.0 74.0 0 200.80615789254975 306.0
28549.0 92.0 0 194.9151920919284 306.0
28570.0 128.0 0 189.02422629130703 306.0
28593.0 150.0 0 183.13326049068567 307.0
28614.0 162.0 0 177.2422946900643 307.0
28637.0 159.0 0 171.35132888944293 307.0
28659.0 170.0 0 165.4603630888216 307.0
28682.0 141.0 0 159.5693972882002 308.0
28704.0 155.0 0 153.67843148757885 308.0
28726.0 182.0 0 147.7874656869575 308.0
28748.0 182.0 0 141.89649988633613 309.0
28791.0 182.0 0 136.00553408571477 312.0
28813.0 315.0 500 130.1145682850934 314.0
28835.0 339.0 0 124.22360248447205 316.0
28858.0 331.0 0 125.1158587004596 318.0
28881.0 337.0 0 126.00811491644713 320.0
28903.0 343.0 0 126.90037113243467 322.0
28925.0 345.0 0 127.79262734842222 324.0
28947.0 312.0 0 128.68488356440974 326.0
28970.0 337.0 0 129.5771397803973 328.0
28992.0 340.0 0 130.46939599638483 330.0
29015.0 350.0 0 131.36165221237238 332.0
29036.0 356.0 0 132.25390842835992 334.0
29059.0 326.0 0 133.14616464434744 336.0
29081.0 346.0 0 134.03842086033498 337.0
29104.0 341.0 0 134.93067707632252 339.0
29126.0 316.0 0 135.82293329231007 341.0
29148.0 326.0 0 136.7151895082976 343.0
29170.0 311.0 0 137.60744572428516 345.0
29193.0 279.0 0 138.49970194027267 347.0
29215.0 226.0 0 139.39195815626022 349.0
29238.0 429.0 500 140.28421437224776 351.0
29259.0 429.0 0 141.1764705882353 351.0
29302.0 429.0 0 141.71761583890523 350.0
29325.0 310.0 0 142.25876108957516 349.0
29346.0 328.0 0 142.7999063402451 348.0
29369.0 335.0 0 143.34105159091501 347.0
29392.0 346.0 0 143.88219684158494 347.0
29414.0 343.0 0 144.42334209225487 346.0
29437.0 321.0 0 144.9644873429248 345.0
29458.0 318.0 0 145.50563259359473 344.0
29481.0 316.0 0 146.04677784426462 343.0
29503.0 329.0 0 146.58792309493455 343.0
29526.0 336.0 0 147.12906834560448 342.0
29548.0 383.0 0 147.6702135962744 341.0
29570.0 356.0 0 148.21135884694434 340.0
29592.0 333.0 0 148.75250409761426 340.0
29615.0 307.0 0 149.2936493482842 339.0
29637.0 434.0 500 149.83479459895412 338.0
29660.0 325.0 0 150.37593984962405 337.0
29682.0 206.0 0 398.75808925298315 337.0
29704.0 275.0 500 647.1402386563423 336.0
29726.0 311.0 0 895.5223880597015 335.0
29749.0 311.0 0 844.4265160683071 334.0
29791.0 311.0 0 793.3306440769127 333.0
29813.0 320.0 0 742.2347720855183 333.0
29836.0 339.0 0 691.138900094124 332.0
29858.0 343.0 0 640.0430281027295 332.0
29881.0 340.0 0 588.9471561113353 332.0
29903.0 341.0 0 537.8512841199408 331.0
29925.0 353.0 0 486.7554121285465 331.0
29948.0 376.0 0 435.659540137152 330.0
29970.0 359.0 0 384.5636681457577 330.0
29993.0 311.0 0 333.4677961543633 329.0
30014.0 285.0 0 282.371924162969 329.0
30037.0 368.0 500 231.27605217157452 328.0
30059.0 367.0 0 180.18018018018017 328.0
30082.0 180.0 0 418.62758280668726 327.0
30104.0 240.0 500 657.0749854331943 327.0
30126.0 310.0 0 895.5223880597015 326.0
30148.0 367.0 0 851.6681299385426 326.0
30171.0 348.0 0 807.8138718173836 325.0
30193.0 355.0 0 763.9596136962248 325.0
30216.0 360.0 0 720.1053555750658 324.0
30237.0 363.0 0 676.2510974539069 324.0
30260.0 363.0 0 632.396839332748 324.0
30303.0 363.0 0 588.5425812115891 325.0
30324.0 323.0 0 544.6883230904302 325.0
30347.0 342.0 0 500.8340649692713 325.0
30369.0 341.0 0 456.9798068481124 326.0
30392.0 335.0 0 413.12554872695347 326.0
30415.0 337.0 0 369.27129060579455 327.0
30436.0 378.0 0 325.4170324846357 327.0
30459.0 447.0 0 281.5627743634767 327.0
30481.0 250.0 0 237.70851624231784 328.0
30504.0 305.0 500 193.85425812115886 328.0
30526.0 365.0 0 150.0 329.0
30548.0 357.0 0 147.8048780487805 329.0
30570.0 377.0 0 145.609756097561 329.0
30593.0 376.0 0 143.41463414634146 330.0
30615.0 393.0 0 141.21951219512195 330.0
30638.0 388.0 0 139.02439024390245 331.0
30659.0 397.0 0 136.82926829268294 331.0
30682.0 398.0 0 134.6341463414634 331.0
30704.0 395.0 0 132.4390243902439 332.0
30727.0 403.0 0 130.2439024390244 332.0
30749.0 403.0 0 128.0487804878049 332.0
30791.0 403.0 0 125.85365853658537 331.0
30814.0 310.0 0 123.65853658536585 330.0
30836.0 338.0 0 121.46341463414635 330.0
30858.0 330.0 0 119.26829268292683 329.0
30880.0 340.0 0 117.07317073170732 328.0
30903.0 339.0 0 114.8780487804878 327.0
30925.0 377.0 0 112.6829268292683 327.0
30948.0 380.0 0 110.48780487804879 326.0
30970.0 388.0 0 108.29268292682927 325.0
30992.0 386.0 0 106.09756097560975 325.0
31015.0 390.0 0 103.90243902439025 324.0
31037.0 398.0 0 101.70731707317074 323.0
31060.0 383.0 0 99.51219512195122 322.0
31081.0 369.0 0 97.3170731707317 322.0
31104.0 381.0 0 95.1219512195122 321.0
31126.0 394.0 0 92.92682926829268 320.0
31149.0 400.0 0 90.73170731707316 320.0
31171.0 408.0 0 88.53658536585365 319.0
31193.0 360.0 0 86.34146341463415 318.0
31215.0 387.0 0 84.14634146341464 317.0
31238.0 382.0 0 81.95121951219512 317.0
31260.0 382.0 0 79.75609756097562 316.0
31302.0 55.0 0 77.5609756097561 316.0
31324.0 312.0 500 75.3658536585366 316.0
31346.0 333.0 0 73.17073170731707 316.0
31369.0 338.0 0 83.45733324707253 316.0
31390.0 337.0 0 93.74393478682798 316.0
31413.0 324.0 0 104.03053632658343 315.0
31435.0 330.0 0 114.31713786633888 315.0
31458.0 438.0 0 124.60373940609433 315.0
31480.0 324.0 0 134.8903409458498 315.0
31502.0 333.0 0 145.17694248560525 315.0
31525.0 367.0 0 155.4635440253607 315.0
31547.0 350.0 0 165.75014556511616 315.0
31570.0 363.0 0 176.0367471048716 315.0
31592.0 330.0 0 186.32334864462706 314.0
31614.0 386.0 500 196.6099501843825 314.0
31636.0 292.0 0 206.89655172413794 314.0
31659.0 307.0 0 218.91327063740857 314.0
31681.0 430.0 0 230.9299895506792 314.0
31704.0 266.0 0 242.94670846394985 314.0
31725.0 157.0 0 254.96342737722046 314.0
31748.0 157.0 0 266.9801462904911 313.0
31791.0 157.0 0 278.99686520376173 313.0
31812.0 321.0 500 291.01358411703234 312.0
31835.0 340.0 0 303.030303030303 312.0
31857.0 337.0 0 296.3651383725733 311.0
31880.0 336.0 0 289.69997371484357 311.0
31902.0 334.0 0 283.0348090571139 311.0
31924.0 302.0 0 276.36964439938413 310.0
31946.0 297.0 0 269.70447974165444 310.0
31969.0 327.0 0 263.03931508392475 309.0
31991.0 366.0 0 256.374150426195 309.0
32014.0 262.0 0 249.7089857684653 309.0
32035.0 234.0 0 243.0438211107356 308.0
32058.0 219.0 0 236.37865645300587 308.0
32081.0 365.0 500 229.71349179527618 307.0
32103.0 305.0 0 223.04832713754647 307.0
32126.0 157.0 0 447.20634744493145 307.0
32148.0 283.0 500 671.3643677523164 306.0
32170.0 345.0 0 895.5223880597015 306.0
32192.0 331.0 0 844.4652811673132 305.0
32215.0 368.0 0 793.4081742749248 305.0
32237.0 380.0 0 742.3510673825365 305.0
32260.0 380.0 0 691.2939604901483 305.0
32302.0 380.0 0 640.2368535977599 305.0
32324.0 320.0 0 589.1797467053716 306.0
32347.0 340.0 0 538.1226398129833 306.0
32368.0 342.0 0 487.065532920595 306.0
32391.0 340.0 0 436.0084260282066 307.0
32413.0 336.0 0 384.9513191358183 307.0
32436.0 320.0 0 333.89421224343005 308.0
32458.0 240.0 0 282.8371053510417 308.0
32480.0 337.0 500 231.77999845865338 308.0
32502.0 359.0 0 180.72289156626505 309.0
32525.0 174.0 0 418.9893903974105 309.0
32547.0 230.0 500 657.255889228556 309.0
32570.0 225.0 0 895.5223880597015 310.0
32592.0 207.0 0 864.9189735439021 310.0
32614.0 211.0 0 834.3155590281028 310.0
32637.0 265.0 0 803.7121445123034 311.0
32659.0 333.0 0 773.108729996504 311.0
32682.0 324.0 0 742.5053154807048 311.0
32703.0 356.0 0 711.9019009649054 312.0
32726.0 336.0 0 681.2984864491061 312.0
32748.0 336.0 0 650.6950719333067 312.0
32790.0 336.0 0 620.0916574175073 312.0
32813.0 317.0 0 589.488242901708 312.0
32835.0 339.0 0 558.8848283859087 312.0
32858.0 337.0 0 528.2814138701093 312.0
32880.0 328.0 0 497.67799935431 312.0
32902.0 330.0 0 467.07458483851065 312.0
32924.0 148.0 0 436.4711703227113 312.0
32947.0 154.0 0 405.86775580691193 312.0
32969.0 182.0 0 375.2643412911126 312.0
32992.0 222.0 0 344.6609267753132 312.0
33013.0 244.0 0 314.05751225951394 312.0
33036.0 248.0 0 283.45409774371456 312.0
33058.0 219.0 0 252.85068322791517 312.0
33081.0 187.0 0 222.2472687121159 312.0
33104.0 210.0 0 191.6438541963165 312.0
33125.0 158.0 0 161.04043968051712 312.0
33148.0 201.0 500 130.43702516471774 312.0
33170.0 246.0 0 99.83361064891847 312.0
33193.0 269.0 0 107.04243960644583 312.0
33215.0 369.0 0 114.2512685639732 312.0
33238.0 288.0 0 121.46009752150056 312.0
33259.0 288.0 0 128.66892647902793 311.0
33302.0 288.0 0 135.87775543655528 311.0
33324.0 316.0 0 143.08658439408265 310.0
33346.0 331.0 0 150.29541335161002 310.0
33369.0 333.0 0 157.5042423091374 310.0
33391.0 335.0 0 164.71307126666474 309.0
33414.0 336.0 0 171.92190022419211 309.0
33435.0 299.0 0 179.13072918171946 309.0
33458.0 375.0 500 186.33955813924683 309.0
33480.0 384.0 0 193.5483870967742 308.0
33503.0 404.0 0 311.8279569892473 308.0
33525.0 327.0 0 430.10752688172045 308.0
33548.0 368.0 500 548.3870967741935 307.0
33569.0 378.0 0 666.6666666666666 307.0
33592.0 366.0 0 626.3736263736264 307.0
33615.0 376.0 0 586.080586080586 306.0
33637.0 369.0 0 545.7875457875458 306.0
33660.0 346.0 0 505.49450549450546 306.0
33681.0 310.0 0 465.2014652014652 305.0
33704.0 461.0 500 424.90842490842493 305.0
33726.0 327.0 0 384.61538461538464 305.0
33749.0 327.0 0 370.5238726790451 304.0
33791.0 327.0 0 356.4323607427056 303.0
33813.0 315.0 0 342.34084880636607 302.0
33836.0 344.0 0 328.2493368700265 302.0
33858.0 337.0 0 314.15782493368704 301.0
33880.0 339.0 0 300.0663129973475 300.0
33902.0 340.0 0 285.97480106100795 299.0
33925.0 241.0 0 271.88328912466847 299.0
33947.0 274.0 0 257.7917771883289 298.0
33970.0 279.0 0 243.7002652519894 297.0
33991.0 255.0 0 229.6087533156499 297.0
34014.0 282.0 0 215.51724137931035 296.0
34036.0 284.0 0 201.42572944297083 295.0
34059.0 243.0 0 187.33421750663132 294.0
34081.0 289.0 500 173.24270557029178 294.0
34103.0 457.0 0 159.15119363395226 293.0
34125.0 239.0 0 286.03006189213085 292.0
34148.0 231.0 0 412.9089301503094 292.0
34171.0 311.0 500 539.787798408488 291.0
34193.0 333.0 0 666.6666666666666 290.0
34215.0 362.0 0 643.3933933933934 289.0
34237.0 348.0 0 620.1201201201201 289.0
34260.0 348.0 0 596.8468468468468 289.0
34302.0 348.0 0 573.5735735735735 290.0
34324.0 312.0 0 550.3003003003003 291.0
34347.0 333.0 0 527.027027027027 292.0
34369.0 343.0 0 503.7537537537537 292.0
34392.0 340.0 0 480.4804804804805 293.0
34413.0 336.0 0 457.2072072072072 294.0
34436.0 202.0 0 433.9339339339339 294.0
34458.0 143.0 0 410.66066066066065 295.0
34481.0 154.0 0 387.3873873873874 296.0
34503.0 521.0 0 364.1141141141141 296.0
34525.0 252.0 0 340.8408408408408 297.0
34547.0 236.0 0 317.56756756756755 298.0
34570.0 201.0 0 294.29429429429433 298.0
34592.0 154.0 0 271.021021021021 299.0
34615.0 154.0 0 247.74774774774778 300.0
34636.0 92.0 0 224.4744744744745 300.0
34658.0 111.0 0 201.20120120120117 301.0
34680.0 226.0 0 177.92792792792795 302.0
34703.0 137.0 0 154.65465465465468 302.0
34726.0 398.0 500 131.3813813813814 303.0
34747.0 398.0 0 108.10810810810811 303.0
34790.0 398.0 0 107.32537897559054 302.0
34813.0 316.0 0 106.54264984307298 301.0
34834.0 338.0 0 105.7599207105554 301.0
34857.0 341.0 0 104.97719157803785 300.0
34879.0 340.0 0 104.19446244552027 299.0
34902.0 343.0 0 103.41173331300271 299.0
34924.0 343.0 0 102.62900418048514 298.0
34946.0 343.0 0 101.84627504796758 297.0
34968.0 343.0 0 101.06354591545 297.0
34991.0 343.0 0 100.28081678293245 296.0
35013.0 343.0 0 99.49808765041487 295.0
35036.0 343.0 0 98.71535851789731 295.0
35057.0 343.0 0 97.93262938537974 294.0
35080.0 343.0 0 97.14990025286218 293.0
35102.0 343.0 0 96.36717112034461 293.0
35125.0 343.0 0 95.58444198782703 292.0
35147.0 343.0 0 94.80171285530948 291.0
35169.0 343.0 0 94.0189837227919 291.0
35191.0 343.0 0 93.23625459027434 290.0
35214.0 343.0 0 92.45352545775677 289.0
35237.0 343.0 0 91.67079632523921 289.0
35259.0 343.0 0 90.88806719272164 288.0
35301.0 343.0 0 90.10533806020408 287.0
35324.0 315.0 0 89.3226089276865 287.0
35346.0 336.0 0 88.53987979516893 286.0
35368.0 337.0 0 87.75715066265137 286.0
35390.0 345.0 0 86.97442153013381 286.0
35413.0 339.0 0 86.19169239761624 285.0
35435.0 397.0 500 85.40896326509866 285.0
35458.0 385.0 0 84.6262341325811 284.0
35479.0 378.0 0 99.10588912274557 284.0
35502.0 377.0 0 113.58554411291004 283.0
35524.0 407.0 0 128.0651991030745 283.0
35547.0 379.0 0 142.54485409323897 282.0
35569.0 384.0 0 157.02450908340342 282.0
35592.0 396.0 0 171.5041640735679 282.0
35613.0 379.0 0 185.98381906373237 281.0
35636.0 344.0 0 200.46347405389685 281.0
35658.0 326.0 0 214.94312904406132 280.0
35681.0 465.0 500 229.42278403422574 280.0
35703.0 280.0 0 243.90243902439025 279.0
35725.0 341.0 500 803.7694013303769 279.0
35747.0 341.0 0 1363.6363636363637 279.0
35791.0 341.0 0 1251.8628912071536 279.0
35812.0 308.0 0 1140.0894187779434 279.0
35835.0 327.0 0 1028.3159463487334 280.0
35857.0 340.0 0 916.5424739195232 280.0
35880.0 331.0 0 804.769001490313 280.0
35902.0 333.0 0 692.995529061103 280.0
35924.0 387.0 0 581.2220566318928 281.0
35946.0 310.0 0 469.4485842026826 281.0
35969.0 417.0 500 357.6751117734724 281.0
35991.0 523.0 0 245.9016393442623 281.0
36014.0 430.0 0 352.96555535089334 282.0
36035.0 385.0 0 460.02947135752436 282.0
36058.0 557.0 500 567.0933873641554 282.0
36080.0 419.0 0 674.1573033707865 283.0
36103.0 392.0 0 636.4246184806306 283.0
36125.0 335.0 0 598.6919335904746 283.0
36147.0 362.0 0 560.9592487003187 283.0
36169.0 356.0 0 523.2265638101627 284.0
36192.0 403.0 500 485.4938789200067 284.0
36214.0 407.0 0 447.76119402985074 284.0
36237.0 395.0 0 449.8120086589951 284.0
36258.0 395.0 0 451.86282328813945 285.0
36301.0 52.0 0 453.91363791728384 286.0
36323.0 304.0 500 455.96445254642816 286.0
36344.0 336.0 0 458.01526717557255 287.0
36367.0 320.0 0 440.2921777879053 287.0
36390.0 344.0 0 422.569088400238 288.0
36412.0 341.0 0 404.84599901257076 288.0
36435.0 377.0 0 387.1229096249035 289.0
36456.0 476.0 0 369.3998202372362 289.0
36479.0 224.0 0 351.67673084956897 290.0
36501.0 191.0 0 333.9536414619017 290.0
36524.0 264.0 500 316.2305520742344 291.0
36546.0 336.0 0 298.5074626865672 291.0
36568.0 353.0 0 311.1630786161359 292.0
36590.0 357.0 0 323.81869454570466 292.0
36613.0 373.0 0 336.4743104752734 293.0
36635.0 368.0 0 349.1299264048422 293.0
36658.0 364.0 0 361.78554233441093 294.0
36679.0 427.0 500 374.4411582639797 294.0
36702.0 304.0 0 387.0967741935484 295.0
36724.0 396.0 500 860.2150537634409 295.0
36747.0 396.0 0 1333.3333333333333 295.0
36789.0 396.0 0 1263.7254901960785 295.0
36811.0 308.0 0 1194.1176470588234 294.0
36834.0 335.0 0 1124.5098039215686 294.0
36856.0 332.0 0 1054.9019607843136 294.0
36878.0 331.0 0 985.2941176470588 293.0
36901.0 334.0 0 915.6862745098039 293.0
36923.0 373.0 0 846.078431372549 292.0
36946.0 376.0 0 776.470588235294 292.0
36968.0 393.0 0 706.8627450980392 291.0
36990.0 385.0 0 637.2549019607843 291.0
37012.0 372.0 0 567.6470588235294 291.0
37035.0 368.0 0 498.0392156862745 290.0
37057.0 381.0 0 428.43137254901967 290.0
37080.0 413.0 0 358.82352941176475 289.0
37101.0 368.0 0 289.21568627450984 289.0
37124.0 431.0 500 219.6078431372548 289.0
37146.0 437.0 0 150.0 288.0
37169.0 424.0 0 228.10810810810813 288.0
37191.0 390.0 0 306.21621621621625 287.0
37214.0 379.0 0 384.32432432432427 287.0
37235.0 507.0 500 462.43243243243245 287.0
37258.0 507.0 0 540.5405405405405 287.0
37300.0 507.0 0 516.6773916773917 287.0
37322.0 305.0 0 492.8142428142428 287.0
37345.0 323.0 0 468.9510939510939 287.0
37367.0 331.0 0 445.08794508794506 287.0
37390.0 332.0 0 421.2247962247962 287.0
37411.0 342.0 0 397.36164736164733 287.0
37434.0 363.0 0 373.4984984984985 287.0
37457.0 354.0 0 349.6353496353496 287.0
37479.0 373.0 0 325.7722007722008 287.0
37502.0 411.0 0 301.90905190905187 288.0
37524.0 409.0 0 278.04590304590306 288.0
37546.0 384.0 0 254.1827541827542 288.0
37568.0 422.0 0 230.31960531960533 288.0
37591.0 363.0 0 206.45645645645646 288.0
37613.0 436.0 500 182.5933075933076 288.0
37636.0 353.0 0 158.73015873015873 288.0
37657.0 278.0 0 404.327568506673 288.0
37680.0 356.0 500 649.9249782831873 288.0
37702.0 332.0 0 895.5223880597015 288.0
37725.0 374.0 500 1114.4278606965174 288.0
37747.0 374.0 0 1333.3333333333333 288.0
37789.0 374.0 0 1292.9666842940242 285.0
37812.0 313.0 0 1252.6000352547153 283.0
37834.0 325.0 0 1212.2333862154062 282.0
37856.0 330.0 0 1171.8667371760973 280.0
37878.0 328.0 0 1131.5000881367882 278.0
37901.0 328.0 0 1091.1334390974791 277.0
37923.0 335.0 0 1050.7667900581703 275.0
37946.0 310.0 0 1010.4001410188612 273.0
37968.0 239.0 0 970.0334919795522 272.0
37990.0 256.0 0 929.6668429402432 270.0
38013.0 448.0 0 889.3001939009341 268.0
38035.0 243.0 0 848.9335448616253 266.0
38058.0 253.0 0 808.5668958223162 265.0
38079.0 372.0 0 768.2002467830072 263.0
38102.0 369.0 0 727.8335977436981 261.0
38124.0 383.0 0 687.4669487043892 260.0
38147.0 381.0 0 647.1002996650802 258.0
38169.0 389.0 0 606.7336506257711 256.0
38191.0 395.0 0 566.3670015864622 255.0
38213.0 370.0 0 526.0003525471532 253.0
38236.0 377.0 0 485.6337035078442 251.0
38258.0 377.0 0 445.2670544685351 251.0
38300.0 377.0 0 404.9004054292261 252.0
38323.0 320.0 0 364.53375638991713 253.0
38345.0 329.0 0 324.16710735060815 254.0
38368.0 343.0 0 283.80045831129905 255.0
38389.0 329.0 0 243.43380927198996 256.0
38412.0 327.0 0 203.0671602326811 256.0
38434.0 289.0 0 162.70051119337222 257.0
38457.0 343.0 500 122.3338621540629 258.0
38479.0 345.0 0 81.9672131147541 259.0
38501.0 372.0 0 82.66078184110971 260.0
38524.0 360.0 0 83.35435056746533 261.0
38546.0 379.0 0 84.04791929382094 261.0
38569.0 394.0 0 84.74148802017655 262.0
38591.0 374.0 0 85.43505674653215 263.0
38613.0 362.0 0 86.12862547288778 264.0
38635.0 394.0 0 86.82219419924338 265.0
38658.0 414.0 0 87.51576292559899 265.0
38680.0 410.0 0 88.2093316519546 266.0
38703.0 406.0 0 88.90290037831022 267.0
38724.0 386.0 0 89.59646910466583 268.0
38747.0 386.0 0 90.29003783102144 269.0
38789.0 386.0 0 90.98360655737704 273.0
38811.0 315.0 0 91.67717528373267 276.0
38834.0 337.0 0 92.37074401008827 278.0
38856.0 331.0 0 93.06431273644388 281.0
38879.0 334.0 0 93.7578814627995 283.0
38900.0 333.0 0 94.45145018915511 286.0
38923.0 331.0 0 95.14501891551072 288.0
38945.0 352.0 0 95.83858764186633 291.0
38968.0 384.0 0 96.53215636822195 293.0
38991.0 358.0 0 97.22572509457756 296.0
39012.0 374.0 0 97.91929382093316 298.0
39035.0 350.0 0 98.61286254728878 301.0
39057.0 392.0 500 99.30643127364439 303.0
39080.0 375.0 0 100.0 306.0
39102.0 358.0 0 101.0689990281827 308.0
39125.0 352.0 0 102.1379980563654 311.0
39146.0 355.0 0 103.2069970845481 313.0
39169.0 427.0 0 104.27599611273081 316.0
39191.0 204.0 0 105.34499514091351 318.0
39214.0 224.0 0 106.41399416909621 321.0
39236.0 311.0 0 107.48299319727892 323.0
39258.0 311.0 0 108.55199222546162 324.0
39301.0 311.0 0 109.62099125364432 324.0
39322.0 309.0 0 110.68999028182702 324.0
39345.0 332.0 0 111.75898931000972 324.0
39367.0 339.0 0 112.82798833819241 324.0
39390.0 341.0 0 113.89698736637511 323.0
39412.0 335.0 0 114.96598639455782 323.0
39434.0 344.0 0 116.03498542274052 323.0
39456.0 368.0 0 117.10398445092322 323.0
39479.0 358.0 0 118.17298347910592 323.0
39501.0 324.0 0 119.24198250728863 322.0
39524.0 294.0 0 120.31098153547133 322.0
39547.0 458.0 500 121.37998056365403 322.0
39568.0 279.0 0 122.44897959183673 322.0
39591.0 200.0 0 384.6629560915275 322.0
39613.0 270.0 500 646.8769325912183 322.0
39636.0 312.0 0 909.0909090909091 321.0
39658.0 347.0 0 892.2468069796727 321.0
39680.0 363.0 0 875.4027048684361 321.0
39702.0 359.0 0 858.5586027571997 321.0
39725.0 371.0 0 841.7145006459632 321.0
39747.0 371.0 0 824.8703985347267 320.0
39789.0 371.0 0 808.0262964234902 319.0
39812.0 321.0 0 791.1821943122537 319.0
39834.0 327.0 0 774.3380922010172 318.0
39857.0 337.0 0 757.4939900897807 317.0
39878.0 329.0 0 740.6498879785443 317.0
39901.0 333.0 0 723.8057858673078 316.0
39923.0 455.0 0 706.9616837560712 316.0
39946.0 293.0 0 690.1175816448348 315.0
39968.0 243.0 0 673.2734795335982 314.0
39990.0 260.0 0 656.4293774223618 314.0
40012.0 275.0 0 639.5852753111253 313.0
40035.0 312.0 0 622.7411731998889 312.0
40058.0 299.0 0 605.8970710886523 312.0
40080.0 328.0 0 589.0529689774158 311.0
40102.0 335.0 0 572.2088668661794 311.0
40124.0 345.0 0 555.3647647549428 310.0
40147.0 363.0 0 538.5206626437064 309.0
40169.0 332.0 0 521.6765605324699 309.0
40192.0 322.0 0 504.8324584212334 308.0
40213.0 351.0 0 487.98835630999696 307.0
40236.0 354.0 0 471.14425419876045 307.0
40258.0 354.0 0 454.30015208752394 307.0
40300.0 354.0 0 437.45604997628743 307.0
40323.0 313.0 0 420.611947865051 307.0
40345.0 343.0 0 403.76784575381447 307.0
40368.0 343.0 0 386.9237436425781 307.0
40390.0 330.0 0 370.0796415313415 307.0
40412.0 337.0 0 353.23553942010494 307.0
40434.0 360.0 0 336.3914373088686 307.0
40457.0 377.0 0 319.54733519763204 307.0
40479.0 396.0 0 302.70323308639547 307.0
40502.0 386.0 0 285.85913097515913 307.0
40523.0 367.0 0 269.01502886392257 307.0
40546.0 393.0 0 252.1709267526861 307.0
40568.0 374.0 0 235.32682464144966 307.0
40591.0 401.0 0 218.4827225302131 307.0
40614.0 379.0 0 201.63862041897664 307.0
40635.0 340.0 0 184.79451830774008 307.0
40658.0 335.0 0 167.95041619650362 307.0
40680.0 368.0 0 151.10631408526717 307.0
40703.0 384.0 0 134.2622119740306 307.0
40725.0 212.0 0 117.41810986279427 307.0
40747.0 212.0 0 100.5740077515577 306.0
40790.0 212.0 0 83.72990564032114 306.0
40812.0 323.0 500 66.8858035290848 306.0
40834.0 334.0 0 50.04170141784821 306.0
40856.0 344.0 0 64.59815139332716 306.0
40879.0 343.0 0 79.15460136880608 306.0
40901.0 343.0 0 93.71105134428504 306.0
40924.0 343.0 0 108.26750131976397 306.0
40945.0 374.0 0 122.82395129524292 306.0
40968.0 366.0 0 137.38040127072185 306.0
40990.0 377.0 0 151.9368512462008 306.0
41013.0 355.0 0 166.49330122167973 306.0
41035.0 336.0 0 181.04975119715866 306.0
41057.0 327.0 0 195.6062011726376 306.0
41079.0 429.0 500 210.16265114811654 306.0
41102.0 266.0 0 224.7191011235955 306.0
41125.0 264.0 0 220.5947922240057 306.0
41147.0 298.0 0 216.4704833244159 306.0
41169.0 356.0 0 212.3461744248261 306.0
41191.0 344.0 0 208.2218655252363 306.0
41214.0 383.0 0 204.09755662564652 306.0
41236.0 347.0 0 199.9732477260567 306.0
41259.0 347.0 0 195.8489388264669 305.0
41301.0 347.0 0 191.72462992687713 304.0
41323.0 318.0 0 187.60032102728732 304.0
41346.0 332.0 0 183.47601212769752 303.0
41367.0 341.0 0 179.35170322810774 303.0
41390.0 339.0 0 175.22739432851793 302.0
41412.0 330.0 0 171.10308542892813 302.0
41435.0 292.0 0 166.97877652933835 301.0
41457.0 452.0 500 162.85446762974854 300.0
41479.0 256.0 0 158.73015873015873 300.0
41501.0 230.0 0 404.327568506673 299.0
41524.0 304.0 500 649.9249782831873 299.0
41546.0 308.0 0 895.5223880597015 298.0
41569.0 349.0 0 840.1811168874727 298.0
41590.0 335.0 0 784.839845715244 297.0
41613.0 377.0 500 729.4985745430153 297.0
41635.0 386.0 0 674.1573033707865 296.0
41658.0 363.0 0 638.8732231428861 296.0
41681.0 366.0 0 603.5891429149856 295.0
41703.0 380.0 0 568.3050626870852 295.0
41725.0 405.0 0 533.0209824591847 294.0
41747.0 405.0 0 497.73690223128426 294.0
41789.0 405.0 0 462.4528220033838 295.0
41812.0 315.0 0 427.16874177548334 295.0
41834.0 338.0 0 391.8846615475829 296.0
41857.0 336.0 0 356.6005813196824 297.0
41879.0 339.0 0 321.31650109178196 297.0
41901.0 331.0 0 286.03242086388155 298.0
41923.0 327.0 0 250.7483406359811 298.0
41946.0 371.0 500 215.46426040808063 299.0
41968.0 373.0 0 180.18018018018017 300.0
41991.0 396.0 0 183.8218815830756 300.0
42012.0 371.0 0 187.46358298597104 301.0
42035.0 371.0 0 191.10528438886647 302.0
42057.0 376.0 0 194.74698579176192 302.0
42080.0 399.0 0 198.38868719465734 303.0
42102.0 384.0 0 202.03038859755276 303.0
42125.0 393.0 0 205.6720900004482 304.0
42146.0 370.0 0 209.31379140334363 305.0
42169.0 387.0 0 212.95549280623908 305.0
42192.0 385.0 0 216.5971942091345 306.0
42214.0 457.0 500 220.23889561202992 307.0
42237.0 399.0 0 223.88059701492537 307.0
42258.0 399.0 0 219.43935430625692 307.0
42301.0 399.0 0 214.99811159758843 307.0
42324.0 314.0 0 210.55686888891998 306.0
42345.0 330.0 0 206.1156261802515 306.0
42368.0 329.0 0 201.67438347158304 306.0
42390.0 330.0 0 197.23314076291456 305.0
42413.0 339.0 0 192.7918980542461 305.0
42435.0 380.0 0 188.35065534557765 304.0
42457.0 369.0 0 183.90941263690917 304.0
42479.0 406.0 0 179.4681699282407 304.0
42502.0 391.0 0 175.02692721957226 303.0
42524.0 376.0 0 170.58568451090377 303.0
42547.0 365.0 0 166.1444418022353 303.0
42568.0 329.0 0 161.70319909356684 302.0
42591.0 354.0 0 157.26195638489838 302.0
42613.0 413.0 0 152.8207136762299 302.0
42636.0 235.0 0 148.37947096756145 301.0
42658.0 262.0 0 143.938228258893 301.0
42680.0 302.0 0 139.4969855502245 301.0
42703.0 299.0 0 135.05574284155603 300.0
42725.0 320.0 0 130.61450013288757 300.0
42748.0 320.0 0 126.17325742421912 300.0
42790.0 320.0 0 121.73201471555063 300.0
42812.0 314.0 0 117.29077200688216 300.0
42835.0 332.0 0 112.84952929821371 300.0
42857.0 334.0 0 108.40828658954524 300.0
42879.0 341.0 0 103.96704388087677 300.0
42901.0 334.0 0 99.5258011722083 300.0
42924.0 298.0 0 95.08455846353985 300.0
42946.0 261.0 0 90.64331575487137 300.0
42969.0 214.0 0 86.20207304620291 300.0
42990.0 444.0 500 81.76083033753443 300.0
43013.0 156.0 0 77.31958762886597 300.0
43035.0 133.0 0 345.6640388114008 300.0
43058.0 213.0 500 614.0084899939357 300.0
43080.0 211.0 0 882.3529411764706 300.0
43102.0 211.0 0 822.7222278276663 300.0
43124.0 229.0 0 763.0915144788619 300.0
43147.0 233.0 0 703.4608011300576 300.0
43169.0 245.0 0 643.8300877812532 300.0
43192.0 294.0 0 584.1993744324488 300.0
43213.0 263.0 0 524.5686610836444 300.0
43236.0 244.0 0 464.9379477348401 300.0
43259.0 244.0 0 405.3072343860357 300.0
43301.0 244.0 0 345.6765210372314 300.0
43323.0 315.0 500 286.0458076884271 300.0
43346.0 341.0 0 226.41509433962264 299.0
43368.0 336.0 0 221.46432697068045 299.0
43391.0 334.0 0 216.51355960173828 299.0
43412.0 335.0 0 211.56279223279608 299.0
43435.0 355.0 0 206.6120248638539 298.0
43457.0 362.0 0 201.66125749491172 298.0
43480.0 341.0 0 196.71049012596953 298.0
43502.0 358.0 0 191.75972275702733 297.0
43524.0 352.0 0 186.80895538808517 297.0
43546.0 359.0 0 181.85818801914297 297.0
43569.0 380.0 0 176.90742065020078 297.0
43591.0 358.0 0 171.95665328125858 296.0
43614.0 329.0 0 167.00588591231642 296.0
43635.0 345.0 0 162.05511854337422 296.0
43658.0 362.0 0 157.10435117443205 296.0
43680.0 339.0 0 152.15358380548986 295.0
43703.0 259.0 0 147.20281643654766 295.0
43725.0 252.0 0 142.25204906760547 295.0
43747.0 252.0 0 137.30128169866327 295.0
43790.0 252.0 0 132.3505143297211 295.0
43813.0 316.0 500 127.39974696077893 295.0
43834.0 337.0 0 122.44897959183673 295.0
43857.0 335.0 0 126.2617621899059 296.0
43879.0 343.0 0 130.07454478797507 296.0
43902.0 339.0 0 133.88732738604423 296.0
43924.0 354.0 0 137.7001099841134 296.0
43946.0 341.0 0 141.51289258218256 297.0
43968.0 343.0 0 145.32567518025172 297.0
43991.0 320.0 0 149.1384577783209 297.0
44013.0 331.0 0 152.95124037639007 297.0
44036.0 360.0 0 156.76402297445924 297.0
44057.0 375.0 0 160.5768055725284 298.0
44080.0 351.0 0 164.38958817059756 298.0
44102.0 338.0 0 168.20237076866675 298.0
44125.0 330.0 0 172.01515336673592 298.0
44147.0 405.0 500 175.82793596480508 299.0
44170.0 246.0 0 179.64071856287424 299.0
44191.0 256.0 0 177.28233656873124 299.0
44214.0 307.0 0 174.92395457458824 299.0
44236.0 333.0 0 172.56557258044526 299.0
44259.0 333.0 0 170.20719058630226 299.0
44301.0 333.0 0 167.84880859215926 298.0
44323.0 316.0 0 165.49042659801626 298.0
44346.0 342.0 0 163.13204460387328 298.0
44369.0 338.0 0 160.77366260973028 297.0
44390.0 336.0 0 158.41528061558728 297.0
44413.0 337.0 0 156.05689862144428 296.0
44435.0 389.0 0 153.69851662730127 296.0
44458.0 369.0 0 151.3401346331583 295.0
44480.0 316.0 0 148.9817526390153 295.0
44502.0 323.0 0 146.6233706448723 294.0
44524.0 452.0 0 144.2649886507293 294.0
44547.0 216.0 0 141.9066066565863 293.0
44569.0 141.0 0 139.54822466244332 293.0
44592.0 332.0 500 137.18984266830032 293.0
44613.0 299.0 0 134.8314606741573 292.0
44636.0 370.0 500 749.2339121552604 292.0
44658.0 387.0 0 1363.6363636363637 291.0
44681.0 339.0 0 1207.5983717774764 291.0
44703.0 389.0 500 1051.560379918589 290.0
44725.0 386.0 0 895.5223880597015 290.0
44747.0 386.0 0 810.5306799336649 289.0
44790.0 59.0 0 725.5389718076285 289.0
44811.0 324.0 500 640.5472636815921 289.0
44833.0 338.0 0 555.5555555555555 288.0
44856.0 343.0 0 537.5898286346047 288.0
44879.0 342.0 0 519.624101713654 288.0
44900.0 331.0 0 501.65837479270317 287.0
44923.0 229.0 0 483.69264787175234 287.0
44945.0 440.0 500 465.7269209508015 287.0
44968.0 440.0 0 447.76119402985074 286.0
44990.0 227.0 0 592.6251097453907 286.0
45013.0 272.0 500 737.4890254609306 286.0
45034.0 339.0 0 882.3529411764706 285.0
45057.0 332.0 0 821.1446740858506 285.0
45079.0 318.0 0 759.9364069952305 285.0
45102.0 268.0 0 698.7281399046105 285.0
45124.0 262.0 0 637.5198728139904 284.0
45146.0 282.0 0 576.3116057233705 284.0
45168.0 214.0 0 515.1033386327504 284.0
45191.0 248.0 0 453.89507154213044 283.0
45213.0 97.0 0 392.68680445151034 283.0
45235.0 241.0 500 331.4785373608903 283.0
45256.0 241.0 0 270.27027027027026 283.0
45299.0 241.0 0 412.7383197150639 283.0
45321.0 314.0 500 555.2063691598576 283.0
45343.0 336.0 0 697.6744186046511 283.0
45366.0 345.0 0 652.6017309604925 284.0
45388.0 341.0 0 607.5290433163341 284.0
45411.0 327.0 0 562.4563556721755 284.0
45432.0 293.0 0 517.383668028017 284.0
45455.0 248.0 0 472.31098038385846 285.0
45478.0 356.0 500 427.23829273969994 285.0
45500.0 326.0 0 382.1656050955414 285.0
45523.0 350.0 0 455.1635296643527 285.0
45544.0 333.0 0 528.161454233164 285.0
45567.0 385.0 500 601.1593788019752 286.0
45589.0 413.0 0 674.1573033707865 286.0
45612.0 339.0 0 647.4339508047373 286.0
45634.0 339.0 0 620.7105982386881 286.0
45657.0 268.0 0 593.9872456726389 287.0
45678.0 433.0 500 567.2638931065896 287.0
45701.0 167.0 0 540.5405405405405 287.0
45723.0 148.0 0 523.3415233415233 287.0
45746.0 148.0 0 506.14250614250614 288.0
45788.0 148.0 0 488.94348894348894 288.0
45810.0 309.0 500 471.74447174447175 289.0
45833.0 340.0 0 454.54545454545456 289.0
45854.0 331.0 0 435.3960894980851 289.0
45877.0 331.0 0 416.2467244507156 290.0
45899.0 335.0 0 397.0973594033461 290.0
45922.0 357.0 0 377.9479943559766 291.0
45944.0 394.0 0 358.79862930860713 291.0
45967.0 371.0 0 339.6492642612377 291.0
45989.0 382.0 0 320.49989921386816 292.0
46011.0 365.0 0 301.35053416649873 292.0
46034.0 301.0 0 282.2011691191292 293.0
46056.0 473.0 500 263.05180407175976 293.0
46079.0 311.0 0 243.90243902439025 293.0
46100.0 298.0 0 351.46615511098935 294.0
46123.0 242.0 0 459.02987119758836 294.0
46145.0 378.0 500 566.5935872841875 295.0
46168.0 270.0 0 674.1573033707865 295.0
46190.0 312.0 500 1003.7453183520599 295.0
46212.0 344.0 0 1333.3333333333333 296.0
46234.0 369.0 0 1158.974358974359 296.0
46257.0 369.0 0 984.6153846153845 297.0
46299.0 55.0 0 810.2564102564103 297.0
46320.0 315.0 500 635.8974358974358 297.0
46343.0 330.0 0 461.53846153846155 297.0
46365.0 343.0 0 476.3736263736264 297.0
46387.0 342.0 0 491.2087912087912 297.0
46409.0 338.0 0 506.04395604395603 297.0
46432.0 388.0 500 520.8791208791208 297.0
46454.0 344.0 0 535.7142857142857 297.0
46477.0 219.0 0 660.1731601731601 297.0
46498.0 300.0 500 784.6320346320347 298.0
46521.0 347.0 0 909.0909090909091 298.0
46544.0 327.0 0 841.0841084108412 298.0
46566.0 338.0 0 773.0773077307731 298.0
46589.0 368.0 0 705.0705070507051 298.0
46610.0 363.0 0 637.0637063706372 298.0
46633.0 336.0 0 569.056905690569 298.0
46655.0 370.0 0 501.0501050105011 298.0
46678.0 272.0 0 433.0433043304331 298.0
46700.0 357.0 500 365.03650365036515 298.0
46723.0 301.0 0 297.029702970297 298.0
46744.0 375.0 500 830.3330333033305 298.0
46767.0 375.0 0 1363.6363636363637 298.0
46809.0 375.0 0 1260.1752314670975 298.0
46831.0 325.0 0 1156.7140992978314 298.0
46854.0 332.0 0 1053.2529671285654 297.0
46876.0 346.0 0 949.7918349592992 297.0
46899.0 343.0 0 846.330702790033 297.0
46920.0 342.0 0 742.8695706207669 297.0
46943.0 318.0 0 639.4084384515007 297.0
46965.0 312.0 0 535.9473062822345 296.0
46988.0 289.0 0 432.48617411296834 296.0
47010.0 411.0 500 329.02504194370226 296.0
47032.0 196.0 0 225.5639097744361 296.0
47055.0 216.0 0 262.04399888610413 295.0
47077.0 298.0 0 298.5240879977722 295.0
47100.0 442.0 0 335.00417710944026 295.0
47122.0 240.0 0 371.4842662211083 295.0
47145.0 335.0 500 407.9643553327764 295.0
47166.0 308.0 0 444.44444444444446 294.0
47189.0 463.0 500 904.0404040404042 294.0
47211.0 312.0 0 1363.6363636363637 294.0
47234.0 194.0 0 1181.818181818182 294.0
47256.0 194.0 0 1000.0 293.0
47298.0 194.0 0 818.1818181818182 293.0
47321.0 316.0 500 636.3636363636363 293.0
47343.0 335.0 0 454.54545454545456 292.0
47365.0 333.0 0 471.74447174447175 292.0
47387.0 341.0 0 488.94348894348894 292.0
47410.0 337.0 0 506.14250614250614 292.0
47432.0 410.0 500 523.3415233415233 291.0
47455.0 406.0 0 540.5405405405405 291.0
47476.0 375.0 0 524.5245245245245 291.0
47499.0 377.0 0 508.5085085085085 290.0
47521.0 341.0 0 492.4924924924925 290.0
47544.0 325.0 0 476.4764764764765 290.0
47567.0 492.0 500 460.46046046046047 290.0
47588.0 288.0 0 444.44444444444446 289.0
47611.0 185.0 0 445.5583402951824 289.0
47633.0 200.0 0 446.67223614592035 289.0
47656.0 347.0 0 447.78613199665836 289.0
47678.0 248.0 0 448.9000278473963 288.0
47700.0 298.0 500 450.01392369813425 288.0
47722.0 383.0 0 451.1278195488722 288.0
47745.0 361.0 0 431.36219937446305 288.0
47767.0 361.0 0 411.5965792000539 288.0
47809.0 361.0 0 391.8309590256448 288.0
47832.0 321.0 0 372.06533885123565 289.0
47854.0 328.0 0 352.2997186768265 289.0
47877.0 332.0 0 332.53409850241735 289.0
47898.0 334.0 0 312.7684783280082 289.0
47921.0 343.0 0 293.00285815359905 290.0
47943.0 462.0 0 273.23723797918996 290.0
47966.0 235.0 0 253.4716178047808 290.0
47988.0 71.0 0 233.70599763037168 290.0
48009.0 370.0 500 213.94037745596253 291.0
48031.0 57.0 0 194.1747572815534 291.0
48053.0 166.0 500 778.9055604589586 291.0
48075.0 229.0 0 1363.6363636363637 291.0
48098.0 233.0 0 1191.2665985699693 292.0
48119.0 228.0 0 1018.8968335035752 292.0
48142.0 271.0 500 846.5270684371808 292.0
48165.0 357.0 0 674.1573033707865 293.0
48187.0 275.0 0 743.5558493060146 293.0
48210.0 389.0 500 812.9543952412425 293.0
48231.0 409.0 0 882.3529411764706 293.0
48254.0 409.0 0 852.2369722213898 293.0
48297.0 409.0 0 822.1210032663091 293.0
48318.0 321.0 0 792.0050343112283 293.0
48341.0 333.0 0 761.8890653561475 293.0
48363.0 336.0 0 731.7730964010668 293.0
48386.0 336.0 0 701.657127445986 292.0
48408.0 332.0 0 671.5411584909053 292.0
48430.0 332.0 0 641.4251895358245 292.0
48452.0 332.0 0 611.3092205807438 292.0
48475.0 71.0 0 581.1932516256629 292.0
48496.0 71.0 0 551.0772826705822 292.0
48517.0 71.0 0 520.9613137155015 291.0
48538.0 53.0 0 490.84534476042074 291.0
48560.0 53.0 0 460.72937580534 291.0
48581.0 53.0 0 430.61340685025925 291.0
48602.0 53.0 0 400.49743789517845 291.0
48623.0 53.0 0 370.3814689400977 290.0
48645.0 53.0 0 340.26549998501696 290.0
48666.0 53.0 0 310.14953102993627 290.0
48687.0 53.0 0 280.03356207485535 290.0
48708.0 53.0 0 249.91759311977466 290.0
48730.0 53.0 0 219.80162416469398 290.0
48751.0 53.0 0 189.68565520961317 289.0
48792.0 53.0 0 159.56968625453237 289.0
48814.0 301.0 500 129.45371729945157 289.0
48836.0 332.0 0 99.33774834437087 289.0
48858.0 330.0 0 112.57049478430747 289.0
48880.0 335.0 0 125.80324122424406 289.0
48903.0 346.0 0 139.03598766418065 289.0
48925.0 309.0 0 152.26873410411727 289.0
48948.0 317.0 0 165.50148054405386 289.0
48969.0 342.0 0 178.73422698399048 289.0
48992.0 334.0 0 191.96697342392707 289.0
49014.0 318.0 0 205.19971986386366 289.0
49037.0 276.0 0 218.43246630380028 289.0
49059.0 418.0 500 231.66521274373684 289.0
49081.0 247.0 0 244.89795918367346 289.0
49104.0 137.0 0 461.77276880901616 289.0
49126.0 188.0 500 678.6475784343588 289.0
49149.0 233.0 0 895.5223880597015 289.0
49171.0 271.0 0 855.534189021551 289.0
49193.0 326.0 0 815.5459899834004 289.0
49215.0 380.0 0 775.55779094525 289.0
49238.0 372.0 0 735.5695919070995 289.0
49260.0 372.0 0 695.5813928689489 288.0
49302.0 372.0 0 655.5931938307983 288.0
49325.0 312.0 0 615.6049947926479 288.0
49347.0 335.0 0 575.6167957544974 288.0
49370.0 331.0 0 535.6285967163469 288.0
49391.0 334.0 0 495.64039767819634 288.0
49414.0 336.0 0 455.65219864004575 288.0
49436.0 380.0 0 415.6639996018953 288.0
49459.0 380.0 0 375.6758005637447 288.0
49481.0 380.0 0 335.68760152559423 288.0
49503.0 380.0 0 295.69940248744376 287.0
49525.0 94.0 0 255.7112034492933 287.0
49547.0 93.0 0 215.7230044111427 287.0
49568.0 147.0 500 175.73480537299224 287.0
49591.0 140.0 0 135.74660633484163 287.0
49612.0 307.0 500 749.6914849856028 287.0
49635.0 186.0 0 1363.6363636363637 287.0
49658.0 300.0 500 1333.99209486166 287.0
49680.0 110.0 0 1304.3478260869565 287.0
49703.0 293.0 500 1318.840579710145 287.0
49724.0 268.0 0 1333.3333333333333 287.0
49747.0 268.0 0 1138.888888888889 286.0
49790.0 268.0 0 944.4444444444443 286.0
49811.0 323.0 500 750.0 286.0
49834.0 339.0 0 555.5555555555555 285.0
49856.0 343.0 0 537.5898286346047 285.0
49879.0 344.0 0 519.624101713654 285.0
49901.0 344.0 0 501.65837479270317 284.0
49923.0 273.0 0 483.69264787175234 284.0
49945.0 318.0 500 465.7269209508015 284.0
49968.0 356.0 0 447.76119402985074 283.0
49990.0 334.0 0 429.8909042232782 283.0
50013.0 326.0 0 412.0206144167057 283.0
50034.0 361.0 0 394.15032461013317 282.0
50057.0 362.0 0 376.2800348035606 282.0
50079.0 367.0 0 358.40974499698814 282.0
50102.0 340.0 0 340.53945519041565 282.0
50124.0 350.0 0 322.6691653838431 281.0
50146.0 298.0 0 304.79887557727056 281.0
50168.0 457.0 500 286.9285857706981 281.0
50191.0 295.0 0 269.05829596412553 280.0
50214.0 266.0 0 473.4898443682406 280.0
50236.0 316.0 500 677.9213927723556 280.0
50258.0 316.0 0 882.3529411764706 279.0
50301.0 316.0 0 829.3679754780325 279.0
50323.0 316.0 0 776.3830097795942 279.0
50345.0 333.0 0 723.3980440811561 279.0
50367.0 342.0 0 670.4130783827179 279.0
50390.0 336.0 0 617.4281126842798 278.0
50412.0 334.0 0 564.4431469858415 278.0
50435.0 329.0 0 511.45818128740336 278.0
50456.0 331.0 0 458.47321558896516 278.0
50479.0 311.0 0 405.488249890527 278.0
50501.0 265.0 0 352.5032841920888 277.0
50524.0 259.0 0 299.51831849365067 277.0
50546.0 404.0 500 246.5333527952124 277.0
50568.0 148.0 0 193.5483870967742 277.0
50590.0 147.0 0 427.5397207510833 277.0
50613.0 307.0 500 661.5310544053923 277.0
50635.0 238.0 0 895.5223880597015 276.0
50658.0 219.0 0 900.0452284034374 276.0
50679.0 289.0 500 904.5680687471732 276.0
50702.0 287.0 0 909.0909090909091 276.0
50725.0 334.0 500 1106.7193675889328 276.0
50747.0 334.0 0 1304.3478260869565 276.0
50789.0 355.0 0 1242.8749739962554 276.0
50811.0 317.0 0 1181.4021219055544 276.0
50833.0 333.0 0 1119.9292698148533 276.0
50856.0 338.0 0 1058.4564177241523 276.0
50877.0 341.0 0 996.9835656334512 276.0
50900.0 339.0 0 935.5107135427502 276.0
50922.0 159.0 0 874.0378614520491 277.0
50945.0 159.0 0 812.5650093613481 277.0
50967.0 159.0 0 751.092157270647 277.0
50989.0 159.0 0 689.619305179946 277.0
51011.0 159.0 0 628.1464530892449 277.0
51034.0 159.0 0 566.6736009985439 277.0
51056.0 130.0 0 505.2007489078428 277.0
51079.0 63.0 0 443.72789681714175 277.0
51099.0 83.0 0 382.2550447264407 278.0
51121.0 114.0 0 320.78219263573965 278.0
51143.0 94.0 0 259.3093405450386 278.0
51165.0 171.0 500 197.83648845433754 278.0
51186.0 214.0 0 136.36363636363637 278.0
51209.0 205.0 0 178.99584076054666 278.0
51231.0 157.0 0 221.62804515745694 278.0
51254.0 157.0 0 264.2602495543672 279.0
51296.0 157.0 0 306.8924539512775 279.0
51318.0 320.0 500 349.5246583481878 279.0
51341.0 334.0 0 392.15686274509807 279.0
51363.0 347.0 0 420.86834733893556 279.0
51385.0 344.0 0 449.5798319327731 279.0
51408.0 342.0 0 478.2913165266106 279.0
51430.0 397.0 500 507.00280112044817 280.0
51453.0 405.0 0 535.7142857142857 280.0
51475.0 366.0 0 509.72814498933894 280.0
51497.0 383.0 0 483.7420042643923 280.0
51519.0 344.0 0 457.7558635394456 280.0
51542.0 365.0 0 431.7697228144989 280.0
51564.0 386.0 0 405.78358208955217 280.0
51587.0 355.0 0 379.7974413646055 281.0
51608.0 357.0 0 353.81130063965884 281.0
51631.0 413.0 0 327.8251599147121 281.0
51653.0 370.0 0 301.8390191897654 281.0
51676.0 291.0 0 275.85287846481873 281.0
51698.0 333.0 500 249.86673773987206 281.0
51721.0 343.0 0 223.88059701492537 281.0
51742.0 341.0 0 219.12729346896091 281.0
51765.0 341.0 0 214.3739899229965 282.0
51808.0 341.0 0 209.62068637703203 283.0
51829.0 319.0 0 204.8673828310676 284.0
51852.0 339.0 0 200.11407928510314 284.0
51874.0 340.0 0 195.36077573913872 285.0
51897.0 344.0 0 190.60747219317426 286.0
51920.0 339.0 0 185.8541686472098 286.0
51941.0 339.0 0 181.10086510124538 287.0
51964.0 339.0 0 176.34756155528092 288.0
51986.0 339.0 0 171.5942580093165 288.0
52009.0 99.0 0 166.84095446335203 289.0
52030.0 65.0 0 162.08765091738758 289.0
52051.0 65.0 0 157.33434737142315 290.0
52072.0 65.0 0 152.5810438254587 291.0
52094.0 65.0 0 147.82774027949426 291.0
52115.0 65.0 0 143.0744367335298 292.0
52136.0 65.0 0 138.32113318756535 292.0
52157.0 65.0 0 133.5678296416009 293.0
52179.0 65.0 0 128.8145260956365 294.0
52200.0 65.0 0 124.06122254967202 294.0
52221.0 65.0 0 119.30791900370758 295.0
52242.0 65.0 0 114.55461545774314 295.0
52264.0 65.0 0 109.8013119117787 297.0
52305.0 65.0 0 105.04800836581424 300.0
52326.0 309.0 500 100.29470481984981 301.0
52349.0 329.0 0 95.54140127388536 303.0
52370.0 344.0 0 136.83768460838525 304.0
52393.0 329.0 0 178.13396794288514 306.0
52415.0 345.0 0 219.43025127738503 308.0
52438.0 366.0 0 260.726534611885 309.0
52460.0 362.0 0 302.02281794638486 311.0
52482.0 436.0 500 343.31910128088475 312.0
52504.0 444.0 0 384.61538461538464 314.0
52527.0 423.0 0 455.12820512820514 316.0
52549.0 355.0 0 525.6410256410256 317.0
52572.0 432.0 500 596.1538461538462 319.0
52593.0 441.0 0 666.6666666666666 320.0
52616.0 410.0 0 747.4747474747475 322.0
52638.0 506.0 500 828.2828282828283 324.0
52661.0 502.0 0 909.0909090909091 325.0
52683.0 398.0 0 850.3575076608785 327.0
52705.0 344.0 0 791.6241062308478 329.0
52727.0 530.0 500 732.8907048008172 330.0
52750.0 530.0 0 674.1573033707865 332.0
52792.0 530.0 0 629.280966359618 332.0
52815.0 318.0 0 584.4046293484496 332.0
52837.0 323.0 0 539.5282923372811 332.0
52860.0 328.0 0 494.65195532611267 332.0
52882.0 332.0 0 449.77561831494415 332.0
52904.0 328.0 0 404.8992813037757 332.0
52926.0 301.0 0 360.0229442926072 332.0
52949.0 379.0 500 315.1466072814388 332.0
52971.0 299.0 0 270.27027027027026 332.0
52994.0 318.0 0 270.1490728396558 332.0
53015.0 341.0 0 270.0278754090413 333.0
53038.0 350.0 0 269.90667797842684 333.0
53060.0 359.0 0 269.78548054781237 333.0
53083.0 308.0 0 269.6642831171979 333.0
53105.0 328.0 0 269.5430856865834 333.0
53127.0 215.0 0 269.42188825596895 333.0
53149.0 203.0 0 269.3006908253545 333.0
53172.0 249.0 500 269.17949339474 333.0
53194.0 200.0 0 269.05829596412553 333.0
53217.0 301.0 500 801.1958146487293 333.0
53238.0 496.0 0 1333.3333333333333 333.0
53261.0 496.0 0 1215.4882154882155 333.0
43304.0 496.0 0 1097.6430976430977 333.0
53325.0 319.0 0 979.7979797979798 332.0
53348.0 338.0 0 861.9528619528619 332.0
53371.0 332.0 0 744.1077441077441 332.0
53393.0 334.0 0 626.2626262626263 331.0
53416.0 332.0 0 508.41750841750843 331.0
53437.0 415.0 500 390.57239057239065 330.0
53460.0 376.0 0 272.72727272727275 330.0
53482.0 323.0 0 265.6287677839402 330.0
53505.0 260.0 0 258.5302628406077 329.0
53527.0 220.0 0 251.43175789727516 329.0
53549.0 243.0 0 244.33325295394263 329.0
53571.0 301.0 0 237.2347480106101 328.0
53594.0 292.0 0 230.13624306727758 328.0
53616.0 312.0 0 223.03773812394502 328.0
53639.0 297.0 0 215.93923318061252 327.0
53660.0 334.0 0 208.84072823727996 327.0
53683.0 377.0 0 201.74222329394746 327.0
53705.0 381.0 0 194.6437183506149 326.0
53728.0 351.0 0 187.54521340728238 326.0
53750.0 351.0 0 180.44670846394985 325.0
53792.0 58.0 0 173.34820352061732 325.0
53814.0 319.0 500 166.2496985772848 325.0
53836.0 337.0 0 159.15119363395226 324.0
53858.0 330.0 0 181.39212589038237 324.0
53880.0 331.0 0 203.63305814681252 324.0
53903.0 341.0 0 225.87399040324263 324.0
53926.0 379.0 0 248.11492265967274 323.0
53948.0 373.0 0 270.3558549161029 323.0
53970.0 317.0 0 292.596787172533 323.0
53992.0 421.0 500 314.83771942896317 323.0
54015.0 525.0 0 337.07865168539325 322.0
54037.0 189.0 0 518.836748182419 322.0
54060.0 381.0 500 700.5948446794448 322.0
54081.0 321.0 0 882.3529411764706 321.0
54104.0 434.0 500 1122.9946524064171 321.0
54126.0 380.0 0 1363.6363636363637 321.0
54149.0 299.0 0 1189.3939393939395 321.0
54171.0 207.0 0 1015.1515151515152 320.0
54194.0 465.0 500 840.9090909090909 320.0
54215.0 322.0 0 666.6666666666666 320.0
54238.0 228.0 0 624.9363867684478 320.0
54260.0 228.0 0 583.206106870229 319.0
54302.0 228.0 0 541.4758269720102 319.0
54325.0 309.0 500 499.7455470737914 318.0
54347.0 330.0 0 458.01526717557255 318.0
54370.0 336.0 0 439.11957005442787 318.0
54391.0 331.0 0 420.22387293328313 317.0
54414.0 343.0 0 401.32817581213845 317.0
54437.0 412.0 0 382.4324786909937 317.0
54459.0 342.0 0 363.53678156984904 317.0
54482.0 373.0 0 344.64108444870436 316.0
54504.0 445.0 0 325.7453873275597 316.0
54526.0 247.0 0 306.84969020641495 316.0
54548.0 455.0 500 287.9539930852702 315.0
54571.0 314.0 0 269.05829596412553 315.0
54593.0 182.0 0 473.4898443682406 315.0
54616.0 245.0 500 677.9213927723556 314.0
54637.0 215.0 0 882.3529411764706 314.0
54660.0 253.0 0 841.3461538461538 314.0
54682.0 255.0 0 800.3393665158371 313.0
54705.0 334.0 0 759.3325791855203 313.0
54727.0 349.0 0 718.3257918552036 313.0
54749.0 349.0 0 677.3190045248869 313.0
54792.0 349.0 0 636.3122171945702 313.0
54814.0 322.0 0 595.3054298642534 313.0
54836.0 336.0 0 554.2986425339366 313.0
54858.0 334.0 0 513.2918552036199 313.0
54881.0 336.0 0 472.28506787330315 313.0
54903.0 345.0 0 431.27828054298635 313.0
54926.0 372.0 0 390.27149321266967 313.0
54947.0 64.0 0 349.2647058823529 313.0
54969.0 89.0 0 308.25791855203613 313.0
54991.0 69.0 0 267.25113122171933 313.0
55012.0 61.0 0 226.24434389140265 313.0
55032.0 107.0 500 185.23755656108597 313.0
55055.0 219.0 0 144.23076923076923 313.0
55078.0 155.0 0 222.52747252747253 313.0
55100.0 147.0 0 300.8241758241758 313.0
55123.0 144.0 0 379.12087912087907 313.0
55144.0 205.0 500 457.4175824175824 313.0
55167.0 123.0 0 535.7142857142857 313.0
55189.0 204.0 500 934.5238095238094 313.0
55212.0 259.0 0 1333.3333333333333 313.0
55234.0 232.0 0 1157.5757575757575 313.0
55256.0 232.0 0 981.8181818181818 313.0
55299.0 232.0 0 806.060606060606 312.0
55321.0 314.0 500 630.3030303030303 311.0
55343.0 336.0 0 454.54545454545456 311.0
55365.0 346.0 0 439.24239718131486 310.0
55388.0 338.0 0 423.93933981717515 310.0
55410.0 344.0 0 408.63628245303545 309.0
55433.0 334.0 0 393.33322508889574 308.0
55454.0 295.0 0 378.03016772475604 308.0
55477.0 326.0 0 362.7271103606164 307.0
55499.0 326.0 0 347.42405299647663 306.0
55522.0 351.0 0 332.1209956323369 306.0
55544.0 324.0 0 316.8179382681973 305.0
55566.0 307.0 0 301.5148809040576 305.0
55589.0 279.0 0 286.2118235399179 304.0
55611.0 212.0 0 270.90876617577817 303.0
55634.0 214.0 0 255.60570881163844 303.0
55656.0 329.0 0 240.30265144749873 302.0
55678.0 62.0 0 224.99959408335906 301.0
55699.0 76.0 0 209.69653671921932 301.0
55721.0 110.0 0 194.39347935507965 300.0
55743.0 154.0 0 179.09042199093994 300.0
55766.0 154.0 0 163.78736462680024 299.0
55808.0 154.0 0 148.48430726266054 299.0
55830.0 310.0 500 133.18124989852083 299.0
55853.0 342.0 0 117.87819253438114 298.0
55874.0 343.0 0 145.27824992825765 298.0
55897.0 336.0 0 172.67830732213417 298.0
55919.0 338.0 0 200.0783647160107 298.0
55942.0 350.0 0 227.47842210988722 298.0
55964.0 328.0 0 254.87847950376374 297.0
55986.0 301.0 0 282.2785368976402 297.0
56008.0 475.0 500 309.67859429151673 297.0
56031.0 267.0 0 337.07865168539325 297.0
56053.0 204.0 0 518.836748182419 296.0
56076.0 290.0 500 700.5948446794448 296.0
56097.0 328.0 0 882.3529411764706 296.0
56120.0 347.0 0 834.8288467929544 296.0
56143.0 353.0 0 787.3047524094384 296.0
56165.0 352.0 0 739.7806580259222 295.0
56188.0 369.0 0 692.2565636424061 295.0
56209.0 362.0 0 644.73246925889 295.0
56232.0 362.0 0 597.2083748753739 295.0
56254.0 362.0 0 549.6842804918577 295.0
56296.0 362.0 0 502.1601861083417 298.0
56319.0 312.0 0 454.6360917248256 300.0
56341.0 339.0 0 407.11199734130946 302.0
56364.0 337.0 0 359.5879029577933 304.0
56386.0 330.0 0 312.0638085742771 305.0
56408.0 329.0 0 264.53971419076106 307.0
56430.0 389.0 500 217.0156198072449 309.0
56453.0 396.0 0 169.4915254237288 311.0
56475.0 394.0 0 171.07736580309276 312.0
56498.0 395.0 0 172.66320618245672 314.0
56519.0 408.0 0 174.24904656182068 316.0
56542.0 417.0 0 175.83488694118466 318.0
56564.0 418.0 0 177.42072732054862 319.0
56587.0 413.0 0 179.00656769991258 321.0
56609.0 401.0 0 180.59240807927654 323.0
56631.0 407.0 0 182.1782484586405 325.0
56653.0 422.0 0 183.76408883800445 326.0
56676.0 411.0 0 185.3499292173684 328.0
56699.0 414.0 0 186.93576959673237 330.0
56721.0 372.0 0 188.52160997609636 332.0
56743.0 484.0 500 190.10745035546032 333.0
56765.0 484.0 0 191.69329073482427 333.0
56808.0 484.0 0 189.65940966601977 331.0
56830.0 312.0 0 187.62552859721526 330.0
56852.0 339.0 0 185.59164752841076 330.0
56875.0 337.0 0 183.55776645960628 329.0
56897.0 323.0 0 181.52388539080178 328.0
56920.0 340.0 0 179.49000432199728 327.0
56941.0 293.0 0 177.45612325319277 326.0
56964.0 327.0 0 175.42224218438827 326.0
56986.0 325.0 0 173.38836111558376 325.0
57009.0 340.0 0 171.35448004677926 324.0
57031.0 351.0 0 169.32059897797475 323.0
57053.0 297.0 0 167.28671790917025 322.0
57075.0 267.0 0 165.25283684036577 322.0
57098.0 241.0 0 163.21895577156127 321.0
57120.0 425.0 500 161.18507470275676 320.0
57143.0 188.0 0 159.15119363395226 319.0
57165.0 214.0 0 156.6670283172399 318.0
57187.0 285.0 0 154.1828630005275 318.0
57210.0 278.0 0 151.69869768381514 317.0
57232.0 310.0 0 149.21453236710278 316.0
57255.0 310.0 0 146.7303670503904 316.0
57297.0 310.0 0 144.24620173367802 317.0
57319.0 321.0 0 141.76203641696566 317.0
57342.0 335.0 0 139.2778711002533 317.0
57363.0 336.0 0 136.79370578354093 318.0
57386.0 335.0 0 134.30954046682854 318.0
57408.0 341.0 0 131.82537515011617 319.0
57431.0 270.0 0 129.3412098334038 319.0
57453.0 229.0 0 126.85704451669142 320.0
57476.0 254.0 0 124.37287919997905 320.0
57497.0 348.0 0 121.88871388326669 321.0
57520.0 85.0 0 119.40454856655431 321.0
57541.0 112.0 0 116.92038324984193 321.0
57564.0 172.0 0 114.43621793312957 322.0
57585.0 159.0 0 111.9520526164172 322.0
57608.0 166.0 0 109.46788729970483 323.0
57630.0 187.0 0 106.98372198299245 323.0
57653.0 220.0 0 104.49955666628009 324.0
57675.0 237.0 0 102.0153913495677 324.0
57697.0 240.0 0 99.53122603285533 325.0
57719.0 253.0 0 97.04706071614297 325.0
57742.0 264.0 0 94.56289539943059 325.0
57765.0 264.0 0 92.07873008271822 325.0
57807.0 264.0 0 89.59456476600585 324.0
57829.0 316.0 500 87.11039944929348 324.0
57852.0 329.0 0 84.6262341325811 324.0
57874.0 341.0 0 103.06944031573555 323.0
57896.0 338.0 0 121.51264649888999 323.0
57918.0 337.0 0 139.95585268204445 322.0
57941.0 333.0 0 158.39905886519887 322.0
57963.0 367.0 0 176.84226504835334 322.0
57986.0 355.0 0 195.28547123150776 321.0
58007.0 362.0 0 213.72867741466223 321.0
58030.0 305.0 0 232.17188359781665 320.0
58052.0 381.0 500 250.61508978097112 320.0
58075.0 349.0 0 269.05829596412553 320.0
58097.0 384.0 0 277.32545030939195 319.0
58119.0 396.0 0 285.59260465465843 319.0
58141.0 404.0 0 293.85975899992485 318.0
58164.0 372.0 0 302.12691334519127 318.0
58186.0 364.0 0 310.3940676904577 318.0
58209.0 333.0 0 318.6612220357241 317.0
58231.0 456.0 500 326.9283763809906 317.0
58253.0 456.0 0 335.195530726257 317.0
58296.0 456.0 0 324.19275965798795 317.0
58317.0 313.0 0 313.1899885897189 318.0
58340.0 332.0 0 302.18721752144984 318.0
58363.0 342.0 0 291.18444645318084 319.0
58385.0 342.0 0 280.1816753849118 319.0
58408.0 329.0 0 269.17890431664273 319.0
58429.0 338.0 0 258.1761332483737 320.0
58452.0 330.0 0 247.17336218010462 320.0
58474.0 332.0 0 236.1705911118356 321.0
58497.0 351.0 0 225.16782004356654 321.0
58519.0 357.0 0 214.1650489752975 321.0
58542.0 325.0 0 203.16227790702845 322.0
58563.0 294.0 0 192.1595068387594 322.0
58586.0 286.0 0 181.15673577049034 323.0
58608.0 450.0 500 170.15396470222132 323.0
58631.0 262.0 0 159.15119363395226 323.0
58653.0 206.0 0 159.15119363395226 324.0
58675.0 244.0 0 159.15119363395226 324.0
58697.0 267.0 0 159.15119363395226 325.0
58720.0 274.0 0 159.15119363395226 325.0
58742.0 331.0 0 159.15119363395226 325.0
58765.0 331.0 0 159.15119363395226 325.0
58807.0 331.0 0 159.15119363395226 324.0
58829.0 315.0 0 159.15119363395226 324.0
58852.0 335.0 0 159.15119363395226 323.0
58874.0 334.0 0 159.15119363395226 323.0
58896.0 334.0 0 159.15119363395226 323.0
58919.0 344.0 0 159.15119363395226 322.0
58941.0 315.0 0 159.15119363395226 322.0
58964.0 278.0 0 159.15119363395226 321.0
58985.0 427.0 500 159.15119363395226 321.0
59008.0 196.0 0 159.15119363395226 320.0
59030.0 210.0 0 156.7287392410545 320.0
59053.0 331.0 0 154.30628484815676 319.0
59075.0 328.0 0 151.88383045525904 319.0
59097.0 322.0 0 149.4613760623613 318.0
59119.0 332.0 0 147.03892166946355 318.0
59142.0 360.0 0 144.6164672765658 318.0
59164.0 345.0 0 142.19401288366805 317.0
59187.0 341.0 0 139.7715584907703 317.0
59208.0 354.0 0 137.34910409787258 316.0
59231.0 371.0 0 134.92664970497484 316.0
59253.0 371.0 0 132.5041953120771 316.0
59295.0 371.0 0 130.08174091917934 320.0
59318.0 314.0 0 127.6592865262816 322.0
59340.0 329.0 0 125.23683213338386 323.0
59363.0 332.0 0 122.81437774048612 325.0
59386.0 330.0 0 120.39192334758837 327.0
59407.0 335.0 0 117.96946895469063 329.0
59430.0 324.0 0 115.54701456179289 331.0
59452.0 351.0 0 113.12456016889514 333.0
59475.0 350.0 0 110.70210577599741 335.0
59497.0 345.0 0 108.27965138309966 337.0
59519.0 329.0 0 105.85719699020191 338.0
59541.0 341.0 0 103.43474259730417 340.0
59564.0 342.0 0 101.01228820440643 342.0
59586.0 323.0 0 98.5898338115087 344.0
59609.0 324.0 0 96.16737941861095 346.0
59630.0 360.0 0 93.7449250257132 348.0
59653.0 342.0 0 91.32247063281545 350.0
59675.0 293.0 0 88.90001623991772 352.0
59698.0 247.0 0 86.47756184701997 353.0
59720.0 350.0 500 84.05510745412224 355.0
59742.0 303.0 0 81.63265306122449 357.0
59764.0 303.0 0 92.19104308390023 357.0
59807.0 303.0 0 102.74943310657596 357.0
59829.0 310.0 0 113.3078231292517 356.0
59851.0 343.0 0 123.86621315192744 356.0
59874.0 335.0 0 134.4246031746032 356.0
59896.0 335.0 0 144.98299319727892 355.0
59919.0 335.0 0 155.54138321995464 355.0
59941.0 300.0 0 166.0997732426304 355.0
59963.0 306.0 0 176.65816326530614 354.0
59986.0 288.0 0 187.21655328798187 354.0
60008.0 328.0 500 197.7749433106576 354.0
60031.0 270.0 0 208.33333333333334 354.0
60052.0 199.0 0 324.7893258426966 353.0
60075.0 195.0 0 441.24531835205994 353.0
60097.0 350.0 500 557.7013108614232 353.0
60120.0 257.0 0 674.1573033707865 352.0
60142.0 82.0 0 752.468505277494 352.0
60163.0 156.0 500 830.7797071842016 352.0
60185.0 161.0 0 909.0909090909091 351.0
60208.0 145.0 0 822.5108225108225 351.0
60230.0 165.0 0 735.930735930736 351.0
60253.0 165.0 0 649.3506493506494 351.0
60295.0 165.0 0 562.7705627705628 351.0
60317.0 314.0 500 476.19047619047626 351.0
60340.0 342.0 0 389.61038961038963 351.0
60361.0 340.0 0 388.89681746824607 351.0
60384.0 343.0 0 388.1832453261025 351.0
60406.0 335.0 0 387.46967318395895 351.0
60429.0 307.0 0 386.7561010418153 352.0
60451.0 274.0 0 386.04252889967177 352.0
60473.0 447.0 500 385.3289567575282 352.0
60496.0 283.0 0 384.61538461538464 352.0
60518.0 154.0 0 550.52790346908 352.0
60541.0 219.0 500 716.4404223227752 352.0
60563.0 284.0 0 882.3529411764706 352.0
60585.0 301.0 0 855.8397271952259 353.0
60607.0 322.0 0 829.3265132139812 353.0
60630.0 323.0 0 802.8132992327365 353.0
60652.0 364.0 0 776.300085251492 353.0
60675.0 343.0 0 749.7868712702473 353.0
60696.0 320.0 0 723.2736572890026 353.0
60719.0 304.0 0 696.7604433077579 353.0
60741.0 310.0 0 670.2472293265132 353.0
60764.0 310.0 0 643.7340153452685 353.0
60806.0 310.0 0 617.2208013640238 352.0
60828.0 315.0 0 590.7075873827791 352.0
60851.0 334.0 0 564.1943734015344 351.0
60873.0 342.0 0 537.6811594202898 351.0
60895.0 335.0 0 511.1679454390452 350.0
60917.0 335.0 0 484.6547314578005 350.0
60940.0 369.0 0 458.1415174765558 349.0
60962.0 385.0 0 431.6283034953112 349.0
60985.0 371.0 0 405.1150895140665 348.0
61007.0 378.0 0 378.6018755328218 348.0
61029.0 386.0 0 352.08866155157716 347.0
61052.0 377.0 0 325.57544757033247 347.0
61074.0 389.0 0 299.0622335890878 346.0
61097.0 387.0 0 272.5490196078431 346.0
61119.0 399.0 0 246.0358056265984 345.0
61141.0 398.0 0 219.5225916453537 345.0
61163.0 367.0 0 193.00937766410902 344.0
61186.0 365.0 0 166.49616368286433 344.0
61208.0 344.0 0 139.98294970161976 343.0
61231.0 464.0 500 113.46973572037507 343.0
61252.0 464.0 0 86.95652173913044 343.0
61295.0 464.0 0 103.05425799496946 343.0
61318.0 314.0 0 119.15199425080849 343.0
61339.0 336.0 0 135.2497305066475 343.0
61362.0 332.0 0 151.34746676248653 344.0
61384.0 334.0 0 167.44520301832554 344.0
61407.0 333.0 0 183.54293927416455 344.0
61429.0 349.0 0 199.6406755300036 344.0
61451.0 321.0 0 215.7384117858426 345.0
61473.0 366.0 500 231.83614804168164 345.0
61496.0 335.0 0 247.93388429752065 345.0
61519.0 348.0 0 280.68564432200793 345.0
61541.0 306.0 0 313.4374043464952 345.0
61563.0 260.0 0 346.18916437098255 346.0
61585.0 210.0 0 378.94092439546984 346.0
61608.0 369.0 500 411.6926844199572 346.0
61630.0 239.0 0 444.44444444444446 346.0
61653.0 52.0 0 425.5031286994757 347.0
61673.0 75.0 0 406.56181295450705 347.0
61695.0 113.0 0 387.6204972095383 347.0
61717.0 119.0 0 368.67918146456964 347.0
61740.0 152.0 0 349.7378657196009 347.0
61762.0 152.0 0 330.79654997463217 348.0
61804.0 152.0 0 311.85523422966344 348.0
61827.0 323.0 500 292.91391848469476 348.0
61848.0 338.0 0 273.972602739726 349.0
61871.0 346.0 0 290.13319866170065 349.0
61893.0 343.0 0 306.29379458367526 349.0
61916.0 344.0 0 322.4543905056499 349.0
61938.0 356.0 0 338.61498642762456 349.0
61960.0 340.0 0 354.7755823495992 350.0
61982.0 434.0 500 370.9361782715738 350.0
62005.0 369.0 0 387.0967741935484 350.0
62027.0 237.0 0 552.1821631878558 350.0
62050.0 318.0 500 717.2675521821632 351.0
62072.0 363.0 0 882.3529411764706 351.0
62094.0 362.0 0 837.1528319550632 351.0
62117.0 346.0 0 791.9527227336558 351.0
62139.0 381.0 0 746.7526135122484 351.0
62162.0 375.0 0 701.5525042908411 352.0
62184.0 388.0 0 656.3523950694337 352.0
62206.0 376.0 0 611.1522858480262 352.0
62228.0 383.0 0 565.9521766266189 352.0
62251.0 383.0 0 520.7520674052114 352.0
62293.0 383.0 0 475.55195818380406 352.0
62315.0 316.0 0 430.3518489623967 352.0
62338.0 336.0 0 385.1517397409893 352.0
62360.0 340.0 0 339.95163051958184 352.0
62383.0 339.0 0 294.75152129817445 351.0
62404.0 336.0 0 249.55141207676706 351.0
62427.0 412.0 500 204.35130285535968 351.0
62449.0 393.0 0 159.15119363395226 351.0
62472.0 383.0 0 158.65722746985043 351.0
62494.0 402.0 0 158.1632613057486 351.0
62516.0 404.0 0 157.66929514164676 350.0
62538.0 403.0 0 157.17532897754492 350.0
62561.0 394.0 0 156.6813628134431 350.0
62583.0 396.0 0 156.18739664934125 350.0
62606.0 406.0 0 155.69343048523942 350.0
62627.0 386.0 0 155.19946432113758 349.0
62650.0 401.0 0 154.70549815703578 349.0
62673.0 400.0 0 154.21153199293394 349.0
62695.0 401.0 0 153.7175658288321 349.0
62718.0 405.0 0 153.22359966473027 349.0
62739.0 402.0 0 152.72963350062844 349.0
62762.0 402.0 0 152.2356673365266 348.0
62805.0 55.0 0 151.74170117242477 347.0
62825.0 310.0 500 151.24773500832293 346.0
62848.0 323.0 0 150.7537688442211 346.0
62870.0 335.0 0 153.67802040783562 345.0
62893.0 335.0 0 156.60227197145014 345.0
62915.0 334.0 0 159.52652353506463 344.0
62937.0 356.0 0 162.45077509867915 344.0
62959.0 367.0 0 165.37502666229366 343.0
62982.0 377.0 0 168.29927822590818 342.0
63004.0 385.0 0 171.22352978952267 342.0
63027.0 392.0 0 174.1477813531372 341.0
63048.0 399.0 0 177.0720329167517 341.0
63071.0 366.0 0 179.99628448036623 340.0
63093.0 379.0 0 182.92053604398075 339.0
63116.0 379.0 0 185.84478760759524 339.0
63138.0 463.0 500 188.76903917120976 338.0
63160.0 323.0 0 191.69329073482427 338.0
63183.0 322.0 0 426.3029898431167 337.0
63205.0 405.0 500 660.9126889514091 337.0
63228.0 384.0 0 895.5223880597015 336.0
63250.0 384.0 0 841.5243879856301 336.0
63292.0 384.0 0 787.5263879115588 336.0
63315.0 320.0 0 733.5283878374876 336.0
63337.0 332.0 0 679.5303877634162 336.0
63359.0 343.0 0 625.5323876893449 337.0
63381.0 342.0 0 571.5343876152735 337.0
63404.0 328.0 0 517.5363875412022 337.0
63426.0 278.0 0 463.53838746713086 337.0
63449.0 259.0 0 409.5403873930596 338.0
63470.0 204.0 0 355.5423873189882 338.0
63493.0 147.0 0 301.54438724491695 338.0
63515.0 396.0 500 247.5463871708456 338.0
63538.0 228.0 0 193.5483870967742 338.0
63560.0 57.0 0 432.06256109481916 339.0
63581.0 163.0 500 670.576735092864 339.0
63603.0 222.0 0 909.0909090909091 339.0
63626.0 244.0 0 890.549362703735 339.0
63648.0 293.0 0 872.0078163165608 340.0
63671.0 298.0 0 853.4662699293867 340.0
63692.0 340.0 0 834.9247235422126 340.0
63715.0 357.0 0 816.3831771550384 340.0
63738.0 366.0 0 797.8416307678643 340.0
63760.0 366.0 0 779.3000843806901 340.0
63802.0 366.0 0 760.758537993516 339.0
63825.0 315.0 0 742.2169916063419 339.0
63847.0 339.0 0 723.6754452191677 339.0
63870.0 347.0 0 705.1338988319936 338.0
63891.0 338.0 0 686.5923524448194 338.0
63914.0 329.0 0 668.0508060576453 337.0
63936.0 283.0 0 649.5092596704712 337.0
63959.0 300.0 0 630.9677132832971 337.0
63981.0 341.0 0 612.4261668961229 336.0
64003.0 359.0 0 593.8846205089488 336.0
64025.0 369.0 0 575.3430741217746 335.0
64048.0 364.0 0 556.8015277346005 335.0
64070.0 368.0 0 538.2599813474264 335.0
64093.0 372.0 0 519.7184349602524 334.0
64114.0 376.0 0 501.17688857307814 334.0
64137.0 372.0 0 482.635342185904 333.0
64159.0 372.0 0 464.09379579872984 333.0
64182.0 392.0 0 445.55224941155575 333.0
64204.0 369.0 0 427.0107030243816 332.0
64227.0 356.0 0 408.4691566372074 332.0
64248.0 356.0 0 389.92761025003324 331.0
64291.0 356.0 0 371.38606386285915 331.0
64314.0 323.0 0 352.84451747568505 330.0
64336.0 329.0 0 334.30297108851096 330.0
64358.0 336.0 0 315.76142470133675 329.0
64381.0 330.0 0 297.21987831416266 329.0
64403.0 334.0 0 278.67833192698856 328.0
64426.0 354.0 0 260.13678553981435 328.0
64447.0 381.0 0 241.59523915264015 327.0
64470.0 371.0 0 223.05369276546605 327.0
64492.0 397.0 0 204.51214637829196 326.0
64515.0 385.0 0 185.97059999111787 326.0
64537.0 377.0 0 167.42905360394366 325.0
64559.0 411.0 0 148.88750721676956 325.0
64581.0 398.0 0 130.34596082959547 324.0
64604.0 373.0 0 111.80441444242126 324.0
64626.0 358.0 0 93.26286805524717 323.0
64649.0 399.0 500 74.72132166807296 323.0
64670.0 451.0 0 56.17977528089887 322.0
64693.0 296.0 0 340.4834865509023 322.0
64715.0 367.0 500 624.7871978209057 321.0
64738.0 357.0 0 909.0909090909091 321.0
64760.0 357.0 0 857.025857025857 320.0
64802.0 357.0 0 804.960804960805 320.0
64825.0 312.0 0 752.8957528957529 320.0
64848.0 341.0 0 700.8307008307008 320.0
64869.0 332.0 0 648.7656487656488 320.0
64892.0 329.0 0 596.7005967005967 320.0
64914.0 333.0 0 544.6355446355446 319.0
64937.0 287.0 0 492.5704925704926 319.0
64959.0 295.0 0 440.5054405054405 319.0
64981.0 282.0 0 388.44038844038846 319.0
65003.0 263.0 0 336.37533637533636 319.0
65026.0 207.0 0 284.3102843102844 319.0
65048.0 454.0 500 232.24523224523227 319.0
65071.0 216.0 0 180.18018018018017 319.0
65092.0 123.0 0 418.62758280668726 318.0
65115.0 176.0 500 657.0749854331943 318.0
65137.0 239.0 0 895.5223880597015 318.0
65160.0 245.0 0 849.472873726605 318.0
65182.0 319.0 0 803.4233593935087 318.0
65204.0 322.0 0 757.3738450604122 318.0
65226.0 328.0 0 711.3243307273158 318.0
65249.0 328.0 0 665.2748163942193 317.0
65291.0 328.0 0 619.2253020611229 316.0
65313.0 314.0 0 573.1757877280265 316.0
65336.0 340.0 0 527.1262733949301 315.0
65359.0 336.0 0 481.0767590618336 314.0
65381.0 330.0 0 435.02724472873723 314.0
65403.0 347.0 0 388.97773039564083 313.0
65425.0 459.0 0 342.9282160625444 312.0
65448.0 308.0 0 296.8787017294479 312.0
65470.0 259.0 0 250.82918739635159 311.0
65493.0 319.0 500 204.77967306325513 311.0
65514.0 335.0 0 158.73015873015873 310.0
65537.0 325.0 0 157.23141903399414 309.0
65559.0 346.0 0 155.73267933782955 309.0
65582.0 334.0 0 154.23393964166496 308.0
65604.0 358.0 0 152.73519994550037 307.0
65626.0 365.0 0 151.23646024933578 307.0
65648.0 363.0 0 149.73772055317121 306.0
65671.0 376.0 0 148.23898085700662 306.0
65693.0 368.0 0 146.74024116084203 305.0
65716.0 354.0 0 145.24150146467744 304.0
65737.0 353.0 0 143.74276176851285 304.0
65760.0 353.0 0 142.24402207234826 304.0
65803.0 353.0 0 140.74528237618367 304.0
65824.0 312.0 0 139.24654268001908 304.0
65847.0 335.0 0 137.7478029838545 304.0
65869.0 342.0 0 136.24906328768992 304.0
65892.0 330.0 0 134.75032359152533 304.0
65915.0 335.0 0 133.25158389536074 304.0
65936.0 334.0 0 131.75284419919615 304.0
65959.0 382.0 500 130.25410450303156 304.0
65981.0 362.0 0 128.75536480686696 304.0
66004.0 371.0 0 142.78565792259283 305.0
66026.0 375.0 0 156.81595103831867 305.0
66048.0 390.0 0 170.84624415404454 305.0
66070.0 370.0 0 184.87653726977038 305.0
66093.0 409.0 0 198.90683038549625 305.0
66115.0 391.0 0 212.93712350122212 305.0
66138.0 349.0 0 226.96741661694796 305.0
66160.0 301.0 0 240.99770973267383 305.0
66182.0 456.0 500 255.0280028483997 305.0
66204.0 307.0 0 269.05829596412553 305.0
66227.0 231.0 0 306.15572768039135 305.0
66249.0 231.0 0 343.25315939665717 306.0
66291.0 231.0 0 380.3505911129229 307.0
66314.0 314.0 500 417.44802282918874 307.0
66336.0 339.0 0 454.54545454545456 308.0
66358.0 330.0 0 444.5554445554446 308.0
66380.0 334.0 0 434.5654345654346 309.0
66403.0 343.0 0 424.5754245754246 309.0
66426.0 324.0 0 414.5854145854146 310.0
66448.0 308.0 0 404.5954045954046 310.0
66470.0 382.0 500 394.6053946053946 311.0
66492.0 324.0 0 384.61538461538464 311.0
66515.0 264.0 0 455.12820512820514 312.0
66537.0 222.0 0 525.6410256410256 312.0
66560.0 299.0 500 596.1538461538462 313.0
66582.0 306.0 0 666.6666666666666 314.0
66604.0 112.0 0 747.4747474747475 314.0
66626.0 164.0 500 828.2828282828283 315.0
66649.0 216.0 0 909.0909090909091 315.0
66671.0 207.0 0 833.1429876656008 316.0
66694.0 218.0 0 757.1950662402924 316.0
66715.0 248.0 0 681.247144814984 317.0
66738.0 233.0 0 605.2992233896757 317.0
66760.0 233.0 0 529.3513019643673 318.0
66802.0 233.0 0 453.40338053905896 318.0
66825.0 319.0 500 377.4554591137505 318.0
66847.0 343.0 0 301.5075376884422 318.0
66870.0 339.0 0 349.3141382588619 318.0
66891.0 339.0 0 397.12073882928155 318.0
66914.0 336.0 0 444.92733939970117 318.0
66936.0 403.0 500 492.7339399701209 318.0
66959.0 396.0 0 540.5405405405405 318.0
66982.0 222.0 0 658.8678230469275 318.0
67003.0 296.0 500 777.1951055533145 318.0
67026.0 364.0 0 895.5223880597015 318.0
67048.0 369.0 0 869.3491327239295 318.0
67071.0 372.0 0 843.1758773881576 318.0
67093.0 379.0 0 817.0026220523856 318.0
67115.0 372.0 0 790.8293667166138 318.0
67137.0 380.0 0 764.6561113808418 318.0
67160.0 394.0 0 738.4828560450699 318.0
67182.0 387.0 0 712.3096007092979 318.0
67205.0 389.0 0 686.136345373526 318.0
67226.0 398.0 0 659.963090037754 318.0
67249.0 398.0 0 633.789834701982 317.0
67292.0 398.0 0 607.6165793662101 316.0
67313.0 317.0 0 581.4433240304381 316.0
67336.0 342.0 0 555.2700686946662 315.0
67358.0 342.0 0 529.0968133588943 315.0
67381.0 330.0 0 502.9235580231224 314.0
67403.0 334.0 0 476.7503026873504 314.0
67425.0 320.0 0 450.5770473515785 313.0
67447.0 345.0 0 424.4037920158065 313.0
67470.0 360.0 0 398.2305366800346 312.0
67493.0 353.0 0 372.0572813442627 312.0
67515.0 360.0 0 345.88402600849076 311.0
67537.0 379.0 0 319.7107706727188 311.0
67559.0 367.0 0 293.53751533694685 310.0
67582.0 374.0 0 267.3642600011749 309.0
67604.0 387.0 0 241.19100466540306 309.0
67627.0 376.0 0 215.017749329631 308.0
67648.0 359.0 0 188.84449399385903 308.0
67671.0 352.0 0 162.6712386580872 307.0
67693.0 337.0 0 136.49798332231524 307.0
67716.0 430.0 500 110.32472798654328 306.0
67738.0 180.0 0 84.15147265077138 306.0
67760.0 180.0 0 200.72828338716113 306.0
67803.0 180.0 0 317.3050941235508 306.0
67825.0 314.0 500 433.88190485994056 306.0
67847.0 337.0 0 550.4587155963303 306.0
67869.0 341.0 0 523.2438723812132 306.0
67892.0 343.0 0 496.02902916609617 306.0
67914.0 333.0 0 468.8141859509791 306.0
67937.0 334.0 0 441.599342735862 306.0
67958.0 379.0 0 414.3844995207449 306.0
67981.0 352.0 0 387.1696563056278 306.0
68003.0 387.0 0 359.9548130905107 307.0
68026.0 416.0 0 332.7399698753937 307.0
68049.0 427.0 0 305.52512666027656 307.0
68070.0 366.0 0 278.3102834451595 307.0
68093.0 463.0 500 251.0954402300424 307.0
68115.0 310.0 0 223.88059701492537 307.0
68138.0 240.0 0 447.76119402985074 307.0
68160.0 331.0 500 671.6417910447761 307.0
