Time	ECG	ECG_Normalized	Heart_Rate	EDA
0.0 334.0 500 0.0 388.0
23.0 340.0 0 0.0 387.0
45.0 322.0 0 3.0612244897959187 387.0
-66.0 327.0 0 6.122448979591837 389.0
-44.0 330.0 0 9.183673469387754 388.0
-22.0 314.0 0 12.244897959183675 388.0
0.0 334.0 0 15.306122448979592 388.0
23.0 340.0 0 18.36734693877551 387.0
45.0 322.0 0 21.428571428571427 387.0
1637.0 262.0 0 24.48979591836735 396.0
1662.0 272.0 0 27.551020408163264 396.0
1685.0 278.0 0 30.612244897959183 396.0
1707.0 297.0 0 33.673469387755105 397.0
1731.0 316.0 0 36.73469387755102 397.0
1753.0 343.0 0 39.79591836734694 397.0
1776.0 359.0 0 42.857142857142854 397.0
1798.0 335.0 0 45.91836734693877 397.0
1821.0 336.0 0 48.9795918367347 397.0
1845.0 336.0 0 52.04081632653061 397.0
1888.0 495.0 500 55.10204081632653 397.0
1911.0 343.0 0 58.16326530612245 396.0
1933.0 341.0 0 61.224489795918366 396.0
1956.0 336.0 0 64.28571428571429 396.0
1977.0 337.0 0 67.34693877551021 396.0
2000.0 361.0 0 70.40816326530611 395.0
2022.0 264.0 0 73.46938775510203 395.0
2045.0 232.0 0 76.53061224489795 395.0
2068.0 223.0 0 79.59183673469389 395.0
2089.0 232.0 0 82.6530612244898 394.0
2112.0 242.0 0 85.71428571428571 394.0
2134.0 247.0 0 88.77551020408163 394.0
2157.0 271.0 0 91.83673469387755 393.0
2179.0 292.0 0 94.89795918367346 393.0
2202.0 290.0 0 97.9591836734694 393.0
2223.0 288.0 0 101.0204081632653 393.0
2246.0 294.0 0 104.08163265306122 392.0
2268.0 283.0 0 107.14285714285714 392.0
2291.0 301.0 0 110.20408163265306 392.0
2313.0 310.0 0 113.26530612244898 392.0
2336.0 310.0 0 116.3265306122449 392.0
2378.0 537.0 500 119.38775510204081 392.0
2400.0 336.0 0 122.44897959183673 392.0
2423.0 325.0 0 122.46090373046677 393.0
2444.0 328.0 0 122.4728278690968 393.0
2467.0 329.0 0 122.48475200772684 393.0
2489.0 316.0 0 122.49667614635688 393.0
2512.0 297.0 0 122.50860028498691 394.0
2534.0 287.0 0 122.52052442361695 394.0
2556.0 294.0 0 122.53244856224698 394.0
2579.0 313.0 0 122.54437270087702 395.0
2601.0 326.0 0 122.55629683950706 395.0
2624.0 330.0 0 122.56822097813709 395.0
2646.0 334.0 0 122.58014511676713 395.0
2669.0 357.0 0 122.59206925539716 396.0
2690.0 336.0 0 122.6039933940272 396.0
2713.0 355.0 0 122.61591753265724 396.0
2735.0 336.0 0 122.62784167128727 396.0
2758.0 374.0 0 122.63976580991731 397.0
2780.0 343.0 0 122.65168994854734 397.0
2802.0 316.0 0 122.66361408717738 397.0
2824.0 316.0 0 122.67553822580741 398.0
2867.0 527.0 500 122.68746236443745 398.0
2889.0 351.0 0 122.69938650306749 399.0
2911.0 336.0 0 122.45927028681882 399.0
2934.0 320.0 0 122.21915407057016 399.0
2956.0 325.0 0 121.97903785432149 400.0
2979.0 335.0 0 121.73892163807282 400.0
3001.0 342.0 0 121.49880542182416 400.0
3023.0 355.0 0 121.25868920557551 401.0
3045.0 353.0 0 121.01857298932684 401.0
3068.0 361.0 0 120.77845677307818 401.0
3091.0 371.0 0 120.53834055682951 402.0
3113.0 367.0 0 120.29822434058084 402.0
3135.0 375.0 0 120.05810812433218 402.0
3157.0 379.0 0 119.81799190808351 403.0
3180.0 386.0 0 119.57787569183485 403.0
3202.0 387.0 0 119.33775947558618 404.0
3225.0 369.0 0 119.09764325933752 404.0
3247.0 339.0 0 118.85752704308885 404.0
3269.0 332.0 0 118.6174108268402 405.0
3291.0 340.0 0 118.37729461059153 405.0
3314.0 442.0 0 118.13717839434287 405.0
3336.0 442.0 0 117.8970621780942 405.0
3378.0 536.0 500 117.65694596184554 405.0
3401.0 346.0 0 117.41682974559687 405.0
3423.0 330.0 0 120.55313822169259 405.0
3446.0 331.0 0 123.68944669778833 405.0
3467.0 339.0 0 126.82575517388405 404.0
3490.0 351.0 0 129.96206364997977 404.0
3512.0 340.0 0 133.0983721260755 404.0
3535.0 356.0 0 136.23468060217124 404.0
3557.0 345.0 0 139.37098907826697 404.0
3579.0 332.0 0 142.50729755436268 403.0
3601.0 335.0 0 145.64360603045841 403.0
3624.0 378.0 0 148.77991450655415 403.0
3647.0 341.0 0 151.91622298264986 403.0
3669.0 313.0 0 155.0525314587456 403.0
3691.0 328.0 0 158.18883993484133 403.0
3713.0 313.0 0 161.32514841093706 402.0
3736.0 457.0 500 164.46145688703277 402.0
3758.0 340.0 0 167.5977653631285 402.0
3781.0 316.0 0 224.98730319959373 402.0
3803.0 305.0 0 282.3768410360589 402.0
3825.0 305.0 0 339.7663788725241 402.0
3868.0 528.0 500 397.15591670898937 402.0
3889.0 340.0 0 454.54545454545456 402.0
3912.0 336.0 0 435.49553894381484 402.0
3934.0 335.0 0 416.44562334217505 402.0
3957.0 329.0 0 397.39570774053533 402.0
3979.0 310.0 0 378.3457921388956 402.0
4001.0 298.0 0 359.2958765372558 402.0
4023.0 295.0 0 340.2459609356161 402.0
4046.0 330.0 0 321.1960453339764 402.0
4068.0 310.0 0 302.1461297323366 402.0
4091.0 269.0 0 283.0962141306969 402.0
4112.0 266.0 0 264.04629852905714 402.0
4135.0 264.0 0 244.99638292741741 402.0
4158.0 371.0 500 225.94646732577766 402.0
4180.0 263.0 0 206.89655172413794 402.0
4203.0 239.0 0 214.07395849586518 402.0
4224.0 237.0 0 221.25136526759246 402.0
4247.0 239.0 0 228.4287720393197 402.0
4269.0 233.0 0 235.60617881104696 402.0
4292.0 265.0 0 242.78358558277424 402.0
4314.0 292.0 0 249.96099235450149 402.0
4336.0 292.0 0 257.13839912622876 402.0
4379.0 531.0 500 264.315805897956 403.0
4401.0 351.0 0 271.49321266968326 403.0
4423.0 325.0 0 274.6606334841629 404.0
4445.0 324.0 0 277.82805429864254 404.0
4468.0 333.0 0 280.99547511312215 404.0
4490.0 342.0 0 284.1628959276018 405.0
4513.0 336.0 0 287.33031674208144 405.0
4534.0 333.0 0 290.4977375565611 406.0
4557.0 312.0 0 293.6651583710407 406.0
4579.0 366.0 500 296.83257918552033 407.0
4602.0 373.0 0 300.0 407.0
4624.0 310.0 0 292.3611111111111 408.0
4646.0 300.0 0 284.72222222222223 408.0
4668.0 306.0 0 277.0833333333333 408.0
4691.0 318.0 0 269.44444444444446 409.0
4714.0 327.0 0 261.80555555555554 409.0
4736.0 337.0 0 254.16666666666669 410.0
4758.0 358.0 0 246.52777777777777 410.0
4780.0 364.0 0 238.8888888888889 411.0
4803.0 354.0 0 231.25 411.0
4825.0 354.0 0 223.61111111111111 411.0
4867.0 533.0 500 215.97222222222223 411.0
4890.0 346.0 0 208.33333333333334 411.0
4912.0 335.0 0 233.1665150136488 410.0
4935.0 331.0 0 257.9996966939642 410.0
4956.0 328.0 0 282.83287837427963 410.0
4979.0 329.0 0 307.6660600545951 410.0
5001.0 327.0 0 332.4992417349105 409.0
5024.0 414.0 500 357.332423415226 409.0
5046.0 316.0 0 382.1656050955414 409.0
5068.0 307.0 0 367.9873331174206 409.0
5090.0 282.0 0 353.80906113929973 408.0
5113.0 292.0 0 339.6307891611789 408.0
5135.0 297.0 0 325.45251718305803 408.0
5158.0 321.0 0 311.2742452049372 407.0
5179.0 329.0 0 297.09597322681634 407.0
5202.0 339.0 0 282.91770124869555 407.0
5225.0 347.0 0 268.7394292705747 407.0
5247.0 337.0 0 254.56115729245386 406.0
5270.0 332.0 0 240.382885314333 406.0
5291.0 363.0 0 226.2046133362122 406.0
5314.0 358.0 0 212.02634135809132 406.0
5336.0 358.0 0 197.84806937997047 405.0
5378.0 539.0 500 183.66979740184965 405.0
5401.0 337.0 0 169.4915254237288 405.0
5423.0 329.0 0 167.2514041936387 405.0
5446.0 335.0 0 165.0112829635486 405.0
5468.0 330.0 0 162.7711617334585 405.0
5490.0 301.0 0 160.53104050336842 404.0
5512.0 252.0 0 158.29091927327832 404.0
5535.0 260.0 0 156.05079804318822 404.0
5557.0 264.0 0 153.8106768130981 404.0
5580.0 276.0 0 151.570555583008 404.0
5601.0 300.0 0 149.3304343529179 404.0
5624.0 303.0 0 147.0903131228278 404.0
5646.0 310.0 0 144.8501918927377 404.0
5669.0 309.0 0 142.61007066264762 403.0
5691.0 307.0 0 140.36994943255752 403.0
5713.0 320.0 0 138.12982820246742 403.0
5735.0 324.0 0 135.88970697237733 403.0
5758.0 324.0 0 133.64958574228723 403.0
5781.0 318.0 0 131.40946451219713 403.0
5803.0 310.0 0 129.16934328210704 403.0
5826.0 310.0 0 126.92922205201694 403.0
5868.0 510.0 500 124.68910082192684 403.0
5890.0 336.0 0 122.44897959183673 403.0
5913.0 325.0 0 122.22024550791674 403.0
5934.0 328.0 0 121.99151142399674 404.0
5957.0 332.0 0 121.76277734007675 404.0
5979.0 311.0 0 121.53404325615676 404.0
6002.0 303.0 0 121.30530917223676 404.0
6024.0 328.0 0 121.07657508831677 405.0
6046.0 326.0 0 120.84784100439677 405.0
6068.0 323.0 0 120.61910692047678 405.0
6091.0 325.0 0 120.39037283655679 405.0
6113.0 328.0 0 120.16163875263679 405.0
6136.0 337.0 0 119.9329046687168 406.0
6157.0 335.0 0 119.70417058479681 406.0
6180.0 349.0 0 119.47543650087681 406.0
6202.0 336.0 0 119.24670241695682 406.0
6225.0 304.0 0 119.01796833303683 407.0
6247.0 282.0 0 118.78923424911683 407.0
6269.0 296.0 0 118.56050016519684 407.0
6292.0 413.0 0 118.33176608127684 407.0
6314.0 292.0 0 118.10303199735685 407.0
6337.0 292.0 0 117.87429791343686 407.0
6379.0 530.0 500 117.64556382951686 406.0
6401.0 354.0 0 117.41682974559687 406.0
6424.0 329.0 0 117.6683800673812 406.0
6446.0 337.0 0 117.9199303891655 405.0
6468.0 332.0 0 118.17148071094982 405.0
6490.0 334.0 0 118.42303103273413 404.0
6513.0 316.0 0 118.67458135451845 404.0
6535.0 319.0 0 118.92613167630276 404.0
6558.0 316.0 0 119.17768199808708 403.0
6579.0 324.0 0 119.42923231987139 403.0
6602.0 356.0 0 119.68078264165571 402.0
6624.0 309.0 0 119.93233296344002 402.0
6647.0 282.0 0 120.18388328522434 402.0
6669.0 274.0 0 120.43543360700865 401.0
6691.0 295.0 0 120.68698392879297 401.0
6713.0 402.0 0 120.93853425057728 400.0
6736.0 273.0 0 121.1900845723616 400.0
6758.0 264.0 0 121.4416348941459 400.0
6781.0 254.0 0 121.69318521593023 399.0
6804.0 265.0 0 121.94473553771454 399.0
6825.0 265.0 0 122.19628585949886 399.0
6868.0 522.0 500 122.44783618128317 399.0
6890.0 336.0 0 122.69938650306749 399.0
6912.0 329.0 0 122.45927028681882 399.0
6935.0 331.0 0 122.21915407057016 399.0
6957.0 338.0 0 121.97903785432149 399.0
6980.0 326.0 0 121.73892163807282 399.0
7001.0 317.0 0 121.49880542182416 399.0
7024.0 316.0 0 121.25868920557551 399.0
7046.0 291.0 0 121.01857298932684 399.0
7069.0 275.0 0 120.77845677307818 399.0
7091.0 269.0 0 120.53834055682951 399.0
7114.0 302.0 0 120.29822434058084 399.0
7135.0 350.0 0 120.05810812433218 399.0
7158.0 248.0 0 119.81799190808351 399.0
7180.0 262.0 0 119.57787569183485 399.0
7203.0 264.0 0 119.33775947558618 399.0
7225.0 265.0 0 119.09764325933752 399.0
7247.0 279.0 0 118.85752704308885 399.0
7269.0 293.0 0 118.6174108268402 399.0
7292.0 300.0 0 118.37729461059153 399.0
7315.0 306.0 0 118.13717839434287 399.0
7337.0 306.0 0 117.8970621780942 399.0
7379.0 508.0 500 117.65694596184554 399.0
7402.0 340.0 0 117.41682974559687 399.0
7424.0 329.0 0 155.2380833670175 399.0
7446.0 335.0 0 193.05933698843816 399.0
7468.0 330.0 0 230.8805906098588 398.0
7491.0 347.0 0 268.70184423127944 398.0
7513.0 344.0 0 306.5230978527001 398.0
7536.0 408.0 500 344.34435147412074 398.0
7557.0 419.0 0 382.1656050955414 398.0
7580.0 330.0 0 367.8158391726618 397.0
7602.0 316.0 0 353.46607324978214 397.0
7625.0 309.0 0 339.11630732690253 397.0
7647.0 310.0 0 324.7665414040229 397.0
7669.0 326.0 0 310.41677548114325 397.0
7691.0 343.0 0 296.06700955826363 397.0
7714.0 354.0 0 281.717243635384 396.0
7736.0 342.0 0 267.3674777125044 396.0
7759.0 349.0 0 253.01771178962474 396.0
7780.0 349.0 0 238.6679458667451 396.0
7803.0 352.0 0 224.3181799438655 396.0
7825.0 352.0 0 209.96841402098588 396.0
7867.0 536.0 500 195.6186480981062 396.0
7890.0 343.0 0 181.2688821752266 396.0
7913.0 327.0 0 178.35609207635267 397.0
7935.0 330.0 0 175.4433019774787 397.0
7958.0 337.0 0 172.53051187860478 397.0
7979.0 330.0 0 169.61772177973086 398.0
8002.0 366.0 0 166.7049316808569 398.0
8024.0 350.0 0 163.79214158198297 398.0
8047.0 362.0 0 160.87935148310905 399.0
8069.0 364.0 0 157.9665613842351 399.0
8091.0 366.0 0 155.05377128536117 399.0
8113.0 384.0 0 152.14098118648724 400.0
8136.0 403.0 0 149.2281910876133 400.0
8158.0 423.0 0 146.31540098873936 400.0
8181.0 419.0 0 143.40261088986543 401.0
8202.0 418.0 0 140.48982079099147 401.0
8225.0 437.0 0 137.57703069211755 401.0
8247.0 439.0 0 134.66424059324362 401.0
8270.0 443.0 0 131.7514504943697 402.0
8292.0 420.0 0 128.83866039549574 402.0
8315.0 382.0 0 125.92587029662181 402.0
8336.0 382.0 0 123.01308019774788 403.0
8379.0 536.0 500 120.10029009887393 403.0
8401.0 338.0 0 117.1875 404.0
8423.0 335.0 0 117.44997078586036 404.0
8446.0 333.0 0 117.71244157172072 404.0
8469.0 329.0 0 117.97491235758108 405.0
8491.0 304.0 0 118.23738314344142 405.0
8513.0 300.0 0 118.49985392930178 405.0
8535.0 297.0 0 118.76232471516214 405.0
8558.0 308.0 0 119.0247955010225 406.0
8580.0 314.0 0 119.28726628688285 406.0
8603.0 312.0 0 119.54973707274321 406.0
8624.0 314.0 0 119.81220785860357 407.0
8647.0 294.0 0 120.07467864446392 407.0
8669.0 320.0 0 120.33714943032427 407.0
8692.0 348.0 0 120.59962021618463 408.0
8714.0 305.0 0 120.86209100204499 408.0
8737.0 272.0 0 121.12456178790535 408.0
8758.0 271.0 0 121.38703257376571 409.0
8781.0 309.0 0 121.64950335962607 409.0
8803.0 422.0 0 121.91197414548641 409.0
8826.0 422.0 0 122.17444493134677 409.0
8868.0 530.0 500 122.43691571720713 408.0
8890.0 340.0 0 122.69938650306749 408.0
8913.0 334.0 0 122.45927028681882 407.0
8935.0 330.0 0 122.21915407057016 406.0
8957.0 327.0 0 121.97903785432149 406.0
8980.0 361.0 0 121.73892163807282 405.0
9002.0 364.0 0 121.49880542182416 404.0
9025.0 363.0 0 121.25868920557551 404.0
9047.0 358.0 0 121.01857298932684 403.0
9069.0 379.0 0 120.77845677307818 403.0
9091.0 385.0 0 120.53834055682951 402.0
9114.0 397.0 0 120.29822434058084 401.0
9136.0 369.0 0 120.05810812433218 401.0
9159.0 331.0 0 119.81799190808351 400.0
9180.0 320.0 0 119.57787569183485 400.0
9203.0 351.0 0 119.33775947558618 399.0
9225.0 410.0 0 119.09764325933752 398.0
9248.0 314.0 0 118.85752704308885 398.0
9270.0 310.0 0 118.6174108268402 397.0
9292.0 323.0 0 118.37729461059153 396.0
9314.0 325.0 0 118.13717839434287 396.0
9337.0 325.0 0 117.8970621780942 396.0
9379.0 526.0 500 117.65694596184554 396.0
9401.0 340.0 0 117.41682974559687 396.0
9424.0 327.0 0 117.6683800673812 396.0
9446.0 335.0 0 117.9199303891655 396.0
9469.0 324.0 0 118.17148071094982 396.0
9491.0 302.0 0 118.42303103273413 397.0
9513.0 283.0 0 118.67458135451845 397.0
9536.0 303.0 0 118.92613167630276 397.0
9558.0 266.0 0 119.17768199808708 397.0
9581.0 252.0 0 119.42923231987139 397.0
9602.0 240.0 0 119.68078264165571 397.0
9625.0 254.0 0 119.93233296344002 397.0
9647.0 374.0 0 120.18388328522434 397.0
9670.0 237.0 0 120.43543360700865 398.0
9692.0 244.0 0 120.68698392879297 398.0
9714.0 241.0 0 120.93853425057728 398.0
9736.0 249.0 0 121.1900845723616 398.0
9759.0 254.0 0 121.4416348941459 398.0
9781.0 265.0 0 121.69318521593023 398.0
9804.0 290.0 0 121.94473553771454 398.0
9825.0 290.0 0 122.19628585949886 399.0
9868.0 529.0 500 122.44783618128317 399.0
9891.0 349.0 0 122.69938650306749 399.0
9912.0 332.0 0 122.45927028681882 400.0
9935.0 331.0 0 122.21915407057016 400.0
9957.0 331.0 0 121.97903785432149 400.0
9980.0 322.0 0 121.73892163807282 401.0
10003.0 277.0 0 121.49880542182416 401.0
10024.0 266.0 0 121.25868920557551 401.0
10047.0 270.0 0 121.01857298932684 402.0
10069.0 427.0 0 120.77845677307818 402.0
10092.0 279.0 0 120.53834055682951 402.0
10114.0 251.0 0 120.29822434058084 403.0
10136.0 251.0 0 120.05810812433218 403.0
10158.0 263.0 0 119.81799190808351 403.0
10181.0 263.0 0 119.57787569183485 404.0
10203.0 283.0 0 119.33775947558618 404.0
10226.0 324.0 0 119.09764325933752 404.0
10248.0 313.0 0 118.85752704308885 404.0
10270.0 306.0 0 118.6174108268402 405.0
10292.0 315.0 0 118.37729461059153 405.0
10315.0 325.0 0 118.13717839434287 405.0
10337.0 325.0 0 117.8970621780942 405.0
10379.0 522.0 500 117.65694596184554 403.0
10402.0 351.0 0 117.41682974559687 403.0
10424.0 338.0 0 117.65645592875116 402.0
10446.0 333.0 0 117.89608211190543 401.0
10468.0 331.0 0 118.13570829505971 400.0
10491.0 358.0 0 118.37533447821399 399.0
10513.0 174.0 0 118.61496066136827 399.0
10536.0 175.0 0 118.85458684452254 398.0
10558.0 169.0 0 119.09421302767683 397.0
10580.0 163.0 0 119.3338392108311 396.0
10603.0 181.0 0 119.57346539398539 395.0
10625.0 205.0 0 119.81309157713966 395.0
10648.0 208.0 0 120.05271776029394 394.0
10670.0 218.0 0 120.29234394344822 393.0
10692.0 239.0 0 120.5319701266025 392.0
10714.0 242.0 0 120.77159630975677 391.0
10737.0 225.0 0 121.01122249291106 391.0
10759.0 237.0 0 121.25084867606533 390.0
10782.0 251.0 0 121.49047485921962 389.0
10803.0 278.0 0 121.73010104237389 388.0
10826.0 278.0 0 121.96972722552817 388.0
10869.0 513.0 500 122.20935340868245 389.0
10890.0 340.0 0 122.44897959183673 389.0
10913.0 334.0 0 122.22024550791674 390.0
10935.0 334.0 0 121.99151142399674 390.0
10958.0 338.0 0 121.76277734007675 391.0
10980.0 325.0 0 121.53404325615676 391.0
11002.0 327.0 0 121.30530917223676 392.0
11024.0 335.0 0 121.07657508831677 392.0
11047.0 345.0 0 120.84784100439677 393.0
11070.0 374.0 0 120.61910692047678 393.0
11092.0 386.0 0 120.39037283655679 394.0
11114.0 401.0 0 120.16163875263679 394.0
11136.0 393.0 0 119.9329046687168 395.0
11159.0 404.0 0 119.70417058479681 396.0
11181.0 409.0 0 119.47543650087681 396.0
11204.0 411.0 0 119.24670241695682 397.0
11225.0 435.0 0 119.01796833303683 397.0
11248.0 424.0 0 118.78923424911683 398.0
11270.0 387.0 0 118.56050016519684 398.0
11293.0 343.0 0 118.33176608127684 399.0
11315.0 359.0 0 118.10303199735685 399.0
11337.0 359.0 0 117.87429791343686 399.0
11380.0 532.0 500 117.64556382951686 399.0
11402.0 341.0 0 117.41682974559687 398.0
11424.0 335.0 0 120.58247956716933 398.0
11446.0 333.0 0 123.7481293887418 398.0
11469.0 326.0 0 126.91377921031426 397.0
11491.0 307.0 0 130.07942903188672 397.0
11514.0 303.0 0 133.2450788534592 396.0
11535.0 301.0 0 136.41072867503166 396.0
11558.0 294.0 0 139.57637849660412 396.0
11580.0 297.0 0 142.74202831817658 395.0
11603.0 303.0 0 145.90767813974907 395.0
11626.0 320.0 0 149.07332796132152 395.0
11647.0 314.0 0 152.23897778289398 394.0
11670.0 280.0 0 155.40462760446644 394.0
11692.0 277.0 0 158.5702774260389 394.0
11715.0 260.0 0 161.73592724761136 393.0
11737.0 344.0 500 164.90157706918384 393.0
11759.0 308.0 0 168.0672268907563 393.0
11781.0 283.0 0 226.05683494771955 392.0
11804.0 259.0 0 284.0464430046828 392.0
11826.0 259.0 0 342.03605106164605 392.0
11868.0 528.0 500 400.02565911860927 392.0
11891.0 345.0 0 458.01526717557255 392.0
11913.0 329.0 0 442.53352001966454 392.0
11936.0 331.0 0 427.0517728637566 392.0
11957.0 339.0 0 411.5700257078486 392.0
11980.0 311.0 0 396.0882785519406 392.0
12002.0 274.0 0 380.6065313960326 392.0
12025.0 286.0 0 365.12478424012465 392.0
12047.0 284.0 0 349.64303708421664 392.0
12069.0 251.0 0 334.16128992830863 392.0
12091.0 241.0 0 318.6795427724007 392.0
12114.0 236.0 0 303.1977956164927 392.0
12137.0 244.0 0 287.7160484605847 392.0
12159.0 370.0 0 272.2343013046767 392.0
12181.0 249.0 0 256.7525541487687 392.0
12203.0 223.0 0 241.27080699286077 392.0
12226.0 213.0 0 225.7890598369528 392.0
12248.0 220.0 0 210.30731268104478 392.0
12271.0 232.0 0 194.82556552513682 392.0
12292.0 254.0 0 179.3438183692288 392.0
12315.0 266.0 0 163.86207121332086 392.0
12337.0 266.0 0 148.38032405741285 391.0
12379.0 525.0 500 132.89857690150484 391.0
12402.0 348.0 0 117.41682974559687 391.0
12424.0 335.0 0 144.6391673681794 391.0
12447.0 334.0 0 171.8615049907619 391.0
12468.0 328.0 0 199.08384261334442 391.0
12491.0 323.0 0 226.30618023592694 390.0
12513.0 306.0 0 253.52851785850947 390.0
12536.0 296.0 0 280.75085548109195 390.0
12558.0 382.0 500 307.9731931036745 390.0
12580.0 298.0 0 335.195530726257 390.0
12602.0 278.0 0 324.25172413316625 390.0
12625.0 272.0 0 313.3079175400755 390.0
12647.0 274.0 0 302.36411094698474 390.0
12670.0 275.0 0 291.420304353894 389.0
12693.0 288.0 0 280.4764977608032 389.0
12714.0 300.0 0 269.53269116771247 389.0
12737.0 313.0 0 258.5888845746217 389.0
12759.0 316.0 0 247.64507798153096 389.0
12782.0 317.0 0 236.7012713884402 389.0
12804.0 305.0 0 225.75746479534945 389.0
12826.0 305.0 0 214.8136582022587 389.0
12869.0 528.0 500 203.86985160916794 389.0
12891.0 343.0 0 192.92604501607718 390.0
12913.0 339.0 0 189.4938079583281 390.0
12935.0 337.0 0 186.06157090057897 391.0
12958.0 333.0 0 182.62933384282988 391.0
12980.0 296.0 0 179.19709678508076 391.0
13003.0 140.0 0 175.76485972733167 392.0
13024.0 122.0 0 172.33262266958255 392.0
13047.0 112.0 0 168.90038561183346 393.0
13069.0 121.0 0 165.46814855408434 393.0
13092.0 127.0 0 162.03591149633525 393.0
13114.0 140.0 0 158.60367443858613 394.0
13136.0 161.0 0 155.17143738083703 394.0
13158.0 178.0 0 151.7392003230879 395.0
13181.0 170.0 0 148.30696326533882 395.0
13204.0 175.0 0 144.8747262075897 395.0
13226.0 177.0 0 141.4424891498406 396.0
13248.0 202.0 0 138.0102520920915 396.0
13270.0 219.0 0 134.5780150343424 397.0
13293.0 193.0 0 131.14577797659328 397.0
13315.0 167.0 0 127.71354091884419 397.0
13338.0 167.0 0 124.28130386109508 398.0
13380.0 491.0 500 120.84906680334598 398.0
13402.0 347.0 0 117.41682974559687 398.0
13425.0 331.0 0 117.68035307543184 398.0
13446.0 325.0 0 117.9438764052668 398.0
13469.0 328.0 0 118.20739973510177 398.0
13491.0 322.0 0 118.47092306493673 398.0
13514.0 309.0 0 118.7344463947717 398.0
13536.0 318.0 0 118.99796972460666 398.0
13558.0 334.0 0 119.26149305444163 398.0
13580.0 342.0 0 119.5250163842766 398.0
13603.0 329.0 0 119.78853971411156 398.0
13625.0 340.0 0 120.05206304394653 398.0
13648.0 344.0 0 120.31558637378149 398.0
13669.0 332.0 0 120.57910970361645 398.0
13692.0 349.0 0 120.84263303345142 398.0
13715.0 311.0 0 121.10615636328639 398.0
13737.0 306.0 0 121.36967969312136 398.0
13760.0 310.0 0 121.63320302295632 398.0
13781.0 320.0 0 121.89672635279129 398.0
13804.0 400.0 0 122.16024968262624 398.0
13826.0 400.0 0 122.42377301246121 397.0
13868.0 521.0 500 122.68729634229618 397.0
13891.0 345.0 0 122.95081967213115 397.0
13913.0 339.0 0 122.68885059612518 396.0
13936.0 330.0 0 122.42688152011922 396.0
13957.0 337.0 0 122.16491244411327 396.0
13980.0 341.0 0 121.9029433681073 395.0
14002.0 353.0 0 121.64097429210133 395.0
14025.0 336.0 0 121.37900521609538 395.0
14047.0 342.0 0 121.11703614008943 394.0
14070.0 336.0 0 120.85506706408346 394.0
14091.0 352.0 0 120.59309798807749 394.0
14114.0 346.0 0 120.33112891207153 393.0
14136.0 317.0 0 120.06915983606558 393.0
14159.0 303.0 0 119.80719076005961 393.0
14181.0 312.0 0 119.54522168405364 392.0
14203.0 404.0 0 119.28325260804769 392.0
14225.0 283.0 0 119.02128353204174 392.0
14248.0 297.0 0 118.75931445603577 392.0
14271.0 301.0 0 118.4973453800298 391.0
14293.0 249.0 0 118.23537630402384 391.0
14315.0 257.0 0 117.97340722801789 391.0
14337.0 257.0 0 117.71143815201192 391.0
14380.0 525.0 500 117.44946907600595 392.0
14402.0 340.0 0 117.1875 392.0
14424.0 332.0 0 137.33416252072968 393.0
14447.0 334.0 0 157.48082504145935 393.0
14469.0 335.0 0 177.62748756218906 394.0
14492.0 320.0 0 197.77415008291874 394.0
14513.0 258.0 0 217.92081260364844 395.0
14536.0 231.0 0 238.06747512437812 395.0
14558.0 212.0 0 258.2141376451078 396.0
14581.0 262.0 500 278.3608001658375 396.0
14603.0 210.0 0 298.5074626865672 397.0
14625.0 283.0 500 831.0719131614655 397.0
14647.0 222.0 0 1363.6363636363637 398.0
14670.0 265.0 500 1348.4848484848485 398.0
14692.0 135.0 0 1333.3333333333333 399.0
14715.0 180.0 500 1333.3333333333333 399.0
14736.0 197.0 0 1333.3333333333333 400.0
14759.0 212.0 0 1176.046176046176 400.0
14782.0 252.0 0 1018.7590187590188 401.0
14804.0 217.0 0 861.4718614718614 401.0
14827.0 217.0 0 704.1847041847042 402.0
14869.0 528.0 500 546.8975468975468 402.0
14891.0 350.0 0 389.61038961038963 403.0
14914.0 337.0 0 376.4547141170518 403.0
14935.0 329.0 0 363.29903862371395 404.0
14958.0 332.0 0 350.14336313037614 404.0
14980.0 395.0 0 336.9876876370383 405.0
15003.0 386.0 0 323.83201214370047 405.0
15025.0 401.0 0 310.67633665036266 406.0
15047.0 357.0 0 297.5206611570248 406.0
15069.0 384.0 0 284.364985663687 406.0
15092.0 185.0 0 271.2093101703491 407.0
15114.0 336.0 500 258.0536346770113 407.0
15137.0 123.0 0 244.89795918367346 408.0
15158.0 235.0 500 804.2671614100186 408.0
15181.0 431.0 0 1363.6363636363637 409.0
15203.0 248.0 0 1203.2085561497327 409.0
15226.0 492.0 500 1042.7807486631018 410.0
15248.0 352.0 0 882.3529411764706 410.0
15270.0 258.0 0 891.2655971479501 410.0
15292.0 422.0 500 900.1782531194297 411.0
15315.0 255.0 0 909.0909090909091 411.0
15338.0 255.0 0 833.3333333333334 412.0
15380.0 537.0 500 757.5757575757576 412.0
15402.0 350.0 0 681.8181818181819 412.0
15425.0 324.0 0 639.7151235860914 412.0
15447.0 336.0 0 597.6120653540008 412.0
15469.0 332.0 0 555.5090071219104 413.0
15491.0 330.0 0 513.4059488898199 413.0
15514.0 74.0 0 471.3028906577294 413.0
15535.0 167.0 500 429.19983242563893 413.0
15558.0 152.0 0 387.0967741935484 413.0
15579.0 86.0 0 561.0948191593353 414.0
15601.0 128.0 500 735.0928641251222 414.0
15623.0 267.0 0 909.0909090909091 414.0
15646.0 99.0 0 836.3636363636364 414.0
15667.0 120.0 0 763.6363636363636 414.0
15689.0 116.0 0 690.909090909091 414.0
15711.0 207.0 500 618.1818181818182 415.0
15734.0 179.0 0 545.4545454545455 415.0
15756.0 76.0 0 662.1438263229309 415.0
15778.0 159.0 500 778.8331071913161 415.0
15799.0 261.0 0 895.5223880597015 415.0
15822.0 205.0 0 810.5306799336649 415.0
15844.0 205.0 0 725.5389718076285 415.0
15886.0 519.0 500 640.5472636815921 415.0
15909.0 347.0 0 555.5555555555555 415.0
15931.0 332.0 0 526.7857142857142 414.0
15954.0 329.0 0 498.015873015873 414.0
15975.0 329.0 0 469.24603174603175 414.0
15998.0 338.0 0 440.4761904761905 414.0
16021.0 233.0 0 411.70634920634916 414.0
16043.0 248.0 0 382.93650793650795 413.0
16066.0 311.0 0 354.16666666666663 413.0
16088.0 185.0 0 325.39682539682536 413.0
16110.0 243.0 500 296.6269841269841 413.0
16132.0 358.0 0 267.85714285714283 412.0
16155.0 238.0 0 264.0123034859877 412.0
16177.0 210.0 0 260.1674641148325 412.0
16200.0 240.0 0 256.32262474367735 412.0
16221.0 273.0 0 252.4777853725222 412.0
16244.0 404.0 0 248.63294600136703 411.0
16266.0 224.0 0 244.7881066302119 411.0
16289.0 238.0 0 240.94326725905674 411.0
16311.0 195.0 0 237.09842788790158 411.0
16333.0 195.0 0 233.25358851674642 411.0
16376.0 537.0 500 229.40874914559126 411.0
16398.0 348.0 0 225.5639097744361 411.0
16420.0 324.0 0 248.28554903742875 411.0
16442.0 337.0 0 271.0071883004214 412.0
16465.0 333.0 0 293.72882756341403 412.0
16487.0 363.0 0 316.4504668264067 412.0
16510.0 291.0 0 339.17210608939934 412.0
16532.0 347.0 500 361.893745352392 413.0
16554.0 438.0 0 384.61538461538464 413.0
16577.0 284.0 0 378.43790287924367 413.0
16599.0 298.0 0 372.26042114310275 413.0
16622.0 350.0 0 366.08293940696177 413.0
16643.0 352.0 0 359.90545767082085 414.0
16666.0 332.0 0 353.7279759346799 414.0
16688.0 289.0 0 347.5504941985389 414.0
16711.0 373.0 500 341.373012462398 414.0
16733.0 221.0 0 335.195530726257 415.0
16755.0 300.0 500 849.4159471813105 415.0
16777.0 270.0 0 1363.6363636363637 415.0
16800.0 319.0 500 1348.4848484848485 415.0
16822.0 398.0 0 1333.3333333333333 415.0
16845.0 398.0 0 1118.7739463601533 415.0
16887.0 530.0 500 904.2145593869732 414.0
16909.0 340.0 0 689.6551724137931 414.0
16932.0 330.0 0 645.5831073227431 413.0
16953.0 335.0 0 601.5110422316932 413.0
16976.0 337.0 0 557.4389771406431 412.0
16998.0 334.0 0 513.3669120495932 412.0
17021.0 325.0 0 469.2948469585432 412.0
17044.0 289.0 0 425.2227818674932 411.0
17065.0 452.0 500 381.15071677644323 411.0
17088.0 345.0 0 337.07865168539325 410.0
17110.0 317.0 0 343.51964502970014 410.0
17133.0 304.0 0 349.96063837400703 409.0
17155.0 316.0 0 356.4016317183139 409.0
17177.0 317.0 0 362.84262506262075 408.0
17199.0 309.0 0 369.28361840692764 408.0
17222.0 354.0 500 375.72461175123453 408.0
17244.0 366.0 0 382.1656050955414 407.0
17267.0 374.0 0 383.83081470380085 407.0
17289.0 368.0 0 385.4960243120603 406.0
17311.0 365.0 0 387.1612339203198 406.0
17333.0 365.0 0 388.8264435285792 406.0
17375.0 523.0 500 390.49165313683864 406.0
17398.0 340.0 0 392.15686274509807 406.0
17420.0 331.0 0 379.3136302139904 406.0
17443.0 328.0 0 366.4703976828827 406.0
17465.0 331.0 0 353.62716515177505 406.0
17487.0 306.0 0 340.7839326206673 406.0
17509.0 266.0 0 327.94070008955964 406.0
17532.0 131.0 0 315.09746755845197 406.0
17555.0 155.0 0 302.2542350273443 406.0
17577.0 166.0 0 289.4110024962366 407.0
17599.0 178.0 0 276.56776996512895 407.0
17621.0 233.0 0 263.7245374340213 407.0
17644.0 218.0 0 250.88130490291357 407.0
17666.0 235.0 0 238.0380723718059 407.0
17689.0 242.0 0 225.1948398406982 407.0
17711.0 250.0 0 212.35160730959052 407.0
17733.0 220.0 0 199.50837477848285 407.0
17755.0 230.0 0 186.66514224737517 407.0
17778.0 291.0 0 173.82190971626747 407.0
17800.0 253.0 0 160.9786771851598 407.0
17823.0 253.0 0 148.13544465405212 408.0
17865.0 521.0 500 135.29221212294442 408.0
17887.0 340.0 0 122.44897959183673 408.0
17909.0 332.0 0 123.05298801134803 409.0
17931.0 328.0 0 123.65699643085934 409.0
17954.0 324.0 0 124.26100485037064 409.0
17976.0 341.0 0 124.86501326988194 409.0
17999.0 362.0 0 125.46902168939324 410.0
18020.0 437.0 0 126.07303010890455 410.0
18043.0 388.0 0 126.67703852841585 410.0
18065.0 385.0 0 127.28104694792715 410.0
18088.0 414.0 0 127.88505536743845 411.0
18111.0 465.0 0 128.48906378694974 411.0
18132.0 407.0 0 129.09307220646104 411.0
18155.0 426.0 0 129.69708062597235 411.0
18177.0 448.0 0 130.30108904548365 412.0
18200.0 413.0 0 130.90509746499495 412.0
18222.0 431.0 0 131.50910588450625 412.0
18245.0 439.0 0 132.11311430401756 413.0
18266.0 360.0 0 132.71712272352886 413.0
18289.0 337.0 0 133.32113114304016 413.0
18311.0 509.0 500 133.92513956255146 413.0
18334.0 509.0 0 134.52914798206277 414.0
18376.0 535.0 0 135.43919810076497 414.0
18398.0 336.0 0 136.34924821946714 414.0
18421.0 333.0 0 137.25929833816934 414.0
18443.0 328.0 0 138.16934845687152 415.0
18465.0 320.0 0 139.07939857557372 415.0
18487.0 315.0 0 139.98944869427592 415.0
18510.0 340.0 0 140.8994988129781 415.0
18532.0 350.0 0 141.8095489316803 416.0
18555.0 378.0 0 142.71959905038247 416.0
18576.0 341.0 0 143.62964916908467 416.0
18599.0 361.0 0 144.53969928778685 416.0
18622.0 403.0 0 145.44974940648905 416.0
18644.0 358.0 0 146.35979952519125 417.0
18667.0 320.0 0 147.26984964389342 417.0
18688.0 293.0 0 148.17989976259562 417.0
18711.0 333.0 500 149.0899498812978 417.0
18733.0 514.0 0 150.0 418.0
18756.0 321.0 0 177.27272727272728 418.0
18778.0 283.0 0 204.54545454545456 418.0
18800.0 307.0 0 231.8181818181818 418.0
18822.0 314.0 0 259.0909090909091 418.0
18845.0 314.0 0 286.3636363636364 418.0
18887.0 525.0 500 313.6363636363636 417.0
18909.0 340.0 0 340.90909090909093 417.0
18932.0 336.0 0 358.7177747625509 417.0
18954.0 322.0 0 376.52645861601087 416.0
18977.0 322.0 0 394.33514246947084 416.0
18998.0 306.0 0 412.1438263229308 415.0
19021.0 352.0 500 429.9525101763908 415.0
19043.0 357.0 0 447.76119402985074 415.0
19066.0 276.0 0 466.3170633319887 414.0
19088.0 288.0 0 484.87293263412664 414.0
19110.0 266.0 0 503.4288019362646 413.0
19132.0 314.0 500 521.9846712384026 413.0
19155.0 383.0 0 540.5405405405405 413.0
19178.0 266.0 0 654.4780074191839 412.0
19200.0 314.0 500 768.4154742978272 412.0
19222.0 302.0 0 882.3529411764706 411.0
19244.0 201.0 0 886.7427568042142 411.0
19267.0 273.0 500 891.1325724319579 411.0
19289.0 416.0 0 895.5223880597015 410.0
19312.0 301.0 0 809.2564699438587 410.0
19333.0 301.0 0 722.9905518280159 410.0
19376.0 530.0 500 636.724633712173 410.0
19399.0 339.0 0 550.4587155963303 410.0
19420.0 339.0 0 523.7862076074632 410.0
19443.0 331.0 0 497.11369961859606 410.0
19465.0 336.0 0 470.4411916297289 410.0
19488.0 372.0 0 443.7686836408618 410.0
19510.0 429.0 0 417.09617565199466 410.0
19532.0 364.0 0 390.4236676631275 410.0
19554.0 409.0 500 363.7511596742604 410.0
19577.0 526.0 0 337.07865168539325 410.0
19599.0 433.0 0 421.34831460674155 410.0
19622.0 336.0 0 505.6179775280899 410.0
19643.0 464.0 500 589.8876404494382 410.0
19666.0 287.0 0 674.1573033707865 410.0
19689.0 330.0 500 989.2525647288714 410.0
19711.0 404.0 0 1304.3478260869565 410.0
19734.0 303.0 0 1179.1831357048748 410.0
19755.0 328.0 0 1054.018445322793 410.0
19778.0 439.0 0 928.8537549407115 410.0
19800.0 435.0 0 803.6890645586298 410.0
19823.0 366.0 0 678.524374176548 410.0
19845.0 366.0 0 553.3596837944664 410.0
19887.0 532.0 500 428.19499341238475 410.0
19910.0 341.0 0 303.030303030303 411.0
19932.0 330.0 0 315.03979891076665 411.0
19954.0 330.0 0 327.04929479123024 411.0
19976.0 329.0 0 339.0587906716939 411.0
19999.0 339.0 0 351.06828655215753 412.0
20021.0 78.0 0 363.0777824326212 412.0
20042.0 224.0 500 375.08727831308477 412.0
20064.0 66.0 0 387.0967741935484 412.0
20086.0 227.0 500 875.3665689149561 413.0
20108.0 110.0 0 1363.6363636363637 413.0
20131.0 164.0 500 1348.4848484848485 413.0
20152.0 343.0 0 1333.3333333333333 413.0
20175.0 217.0 0 1168.5393258426966 414.0
20197.0 123.0 0 1003.7453183520599 414.0
20220.0 200.0 500 838.9513108614232 414.0
20243.0 227.0 0 674.1573033707865 415.0
20264.0 227.0 0 674.1573033707865 415.0
20287.0 203.0 0 674.1573033707865 415.0
20309.0 312.0 500 674.1573033707865 415.0
20332.0 312.0 0 674.1573033707865 416.0
20374.0 499.0 500 798.6171132238549 416.0
20396.0 350.0 0 923.0769230769231 416.0
20419.0 338.0 0 886.650874480489 416.0
20441.0 324.0 0 850.2248258840551 417.0
20463.0 332.0 0 813.7987772876211 417.0
20485.0 59.0 0 777.3727286911871 417.0
20507.0 59.0 0 740.9466800947531 417.0
20528.0 59.0 0 704.5206314983192 418.0
20549.0 59.0 0 668.0945829018851 418.0
20570.0 59.0 0 631.6685343054512 418.0
20592.0 59.0 0 595.2424857090172 418.0
20613.0 59.0 0 558.8164371125831 418.0
20634.0 59.0 0 522.3903885161492 419.0
20655.0 59.0 0 485.9643399197152 419.0
20677.0 59.0 0 449.53829132328116 419.0
20698.0 59.0 0 413.1122427268472 419.0
20719.0 59.0 0 376.68619413041324 419.0
20740.0 59.0 0 340.2601455339792 420.0
20762.0 59.0 0 303.83409693754527 420.0
20783.0 59.0 0 267.4080483411112 420.0
20804.0 59.0 0 230.9819997446773 420.0
20825.0 59.0 0 194.55595114824325 421.0
20867.0 531.0 500 158.1299025518092 421.0
20889.0 342.0 0 121.70385395537525 421.0
20911.0 335.0 0 204.50594030715735 421.0
20934.0 332.0 0 287.3080266589394 421.0
20956.0 330.0 0 370.1101130107215 421.0
20979.0 407.0 500 452.91219936250354 421.0
21000.0 561.0 0 535.7142857142857 421.0
21023.0 563.0 0 513.0473241928349 421.0
21045.0 560.0 0 490.3803626713843 421.0
21068.0 555.0 0 467.7134011499336 421.0
21090.0 557.0 0 445.0464396284829 422.0
21112.0 563.0 0 422.37947810703224 422.0
21134.0 555.0 0 399.71251658558157 422.0
21157.0 559.0 0 377.0455550641309 422.0
21179.0 561.0 0 354.37859354268016 422.0
21202.0 560.0 0 331.71163202122955 422.0
21223.0 558.0 0 309.0446704997788 422.0
21246.0 559.0 0 286.37770897832814 422.0
21269.0 550.0 0 263.71074745687747 422.0
21291.0 489.0 0 241.0437859354268 422.0
21314.0 461.0 0 218.37682441397612 422.0
21335.0 461.0 0 195.70986289252545 422.0
21378.0 541.0 500 173.04290137107472 422.0
21401.0 316.0 0 150.37593984962405 422.0
21422.0 304.0 0 159.06009434913662 422.0
21445.0 310.0 0 167.7442488486492 422.0
21467.0 316.0 0 176.42840334816174 421.0
21490.0 173.0 0 185.1125578476743 421.0
21512.0 173.0 0 193.79671234718688 421.0
21534.0 199.0 0 202.48086684669946 421.0
21556.0 119.0 0 211.16502134621203 421.0
21579.0 92.0 0 219.84917584572457 420.0
21600.0 64.0 0 228.53333034523718 420.0
21622.0 132.0 500 237.21748484474972 420.0
21643.0 83.0 0 245.9016393442623 420.0
21665.0 174.0 500 820.6252382767823 420.0
21687.0 130.0 0 1395.3488372093022 420.0
21710.0 65.0 0 1270.7514778237937 419.0
21730.0 67.0 0 1146.1541184382854 419.0
21752.0 164.0 0 1021.5567590527769 419.0
21774.0 110.0 0 896.9593996672684 419.0
21797.0 120.0 0 772.3620402817598 419.0
21819.0 295.0 0 647.7646808962514 419.0
21841.0 295.0 0 523.1673215107429 418.0
21884.0 512.0 500 398.5699621252345 418.0
21907.0 333.0 0 273.972602739726 418.0
21928.0 320.0 0 281.86085885793443 418.0
21951.0 324.0 0 289.74911497614283 418.0
21973.0 328.0 0 297.63737109435124 418.0
21996.0 388.0 0 305.52562721255964 418.0
22018.0 561.0 0 313.41388333076804 418.0
22040.0 445.0 0 321.30213944897645 418.0
22062.0 561.0 500 329.19039556718485 418.0
22085.0 557.0 0 337.07865168539325 418.0
22107.0 558.0 0 326.8581911095096 418.0
22130.0 560.0 0 316.637730533626 418.0
22151.0 558.0 0 306.41726995774235 418.0
22174.0 548.0 0 296.19680938185866 418.0
22196.0 555.0 0 285.976348805975 418.0
22219.0 553.0 0 275.7558882300914 418.0
22241.0 559.0 0 265.53542765420775 418.0
22263.0 554.0 0 255.31496707832412 418.0
22285.0 556.0 0 245.09450650244048 418.0
22308.0 562.0 0 234.87404592655685 418.0
22330.0 562.0 0 224.65358535067315 418.0
22372.0 556.0 0 214.43312477478955 418.0
22395.0 318.0 0 204.21266419890588 419.0
22417.0 312.0 0 193.99220362302225 419.0
22440.0 306.0 0 183.7717430471386 420.0
22462.0 308.0 0 173.55128247125498 420.0
22484.0 316.0 0 163.33082189537132 420.0
22507.0 217.0 0 153.11036131948768 421.0
22529.0 199.0 0 142.88990074360404 421.0
22552.0 296.0 500 132.6694401677204 422.0
22573.0 91.0 0 122.44897959183673 422.0
22595.0 172.0 500 758.8989084005696 422.0
22617.0 227.0 0 1395.3488372093022 423.0
22640.0 255.0 0 1215.0509537496732 423.0
22662.0 183.0 0 1034.7530702900444 424.0
22684.0 243.0 500 854.4551868304154 424.0
22706.0 324.0 0 674.1573033707865 424.0
22729.0 196.0 0 747.9456649337582 425.0
22751.0 237.0 500 821.7340264967298 425.0
22774.0 255.0 0 895.5223880597015 426.0
22795.0 309.0 0 808.0209638828757 426.0
22818.0 235.0 0 720.51953970605 426.0
22840.0 235.0 0 633.0181155292241 426.0
22882.0 517.0 500 545.5166913523983 425.0
22905.0 335.0 0 458.01526717557255 425.0
22927.0 317.0 0 440.84127314858665 425.0
22950.0 330.0 0 423.66727912160076 424.0
22972.0 329.0 0 406.49328509461486 424.0
22994.0 316.0 0 389.3192910676289 423.0
23017.0 322.0 0 372.1452970406431 423.0
23039.0 336.0 0 354.9713030136571 423.0
23062.0 357.0 0 337.7973089866712 422.0
23084.0 368.0 0 320.62331495968533 422.0
23106.0 371.0 0 303.44932093269944 421.0
23128.0 363.0 0 286.27532690571354 421.0
23151.0 399.0 0 269.1013328787276 421.0
23173.0 340.0 0 251.92733885174175 420.0
23196.0 372.0 0 234.75334482475583 420.0
23217.0 427.0 0 217.57935079776993 419.0
23240.0 357.0 0 200.405356770784 419.0
23262.0 314.0 0 183.23136274379812 419.0
23285.0 362.0 500 166.05736871681222 418.0
23307.0 427.0 0 148.8833746898263 418.0
23330.0 427.0 0 329.14064059781526 417.0
23372.0 527.0 500 509.39790650580414 417.0
23394.0 336.0 0 689.6551724137931 417.0
23416.0 335.0 0 663.6443386561479 417.0
23438.0 331.0 0 637.6335048985026 417.0
23461.0 324.0 0 611.6226711408573 416.0
23483.0 325.0 0 585.611837383212 416.0
23506.0 391.0 0 559.6010036255667 416.0
23529.0 442.0 0 533.5901698679214 416.0
23550.0 516.0 0 507.57933611027613 416.0
23573.0 462.0 0 481.56850235263084 416.0
23595.0 461.0 0 455.55766859498556 415.0
23618.0 487.0 0 429.54683483734027 415.0
23640.0 510.0 0 403.536001079695 415.0
23662.0 462.0 0 377.5251673220497 415.0
23684.0 430.0 0 351.5143335644044 415.0
23707.0 451.0 0 325.5034998067591 414.0
23729.0 414.0 0 299.4926660491139 414.0
23752.0 428.0 0 273.48183229146855 414.0
23773.0 371.0 0 247.47099853382326 414.0
23796.0 366.0 0 221.46016477617792 414.0
23818.0 297.0 0 195.4493310185327 414.0
23841.0 297.0 0 169.4384972608874 414.0
23883.0 536.0 500 143.42766350324212 414.0
23905.0 337.0 0 117.41682974559687 414.0
23928.0 327.0 0 126.28881035137425 415.0
23950.0 317.0 0 135.16079095715162 415.0
23972.0 327.0 0 144.03277156292899 415.0
23994.0 336.0 0 152.90475216870635 416.0
24017.0 350.0 0 161.77673277448375 416.0
24039.0 376.0 0 170.6487133802611 416.0
24062.0 343.0 0 179.5206939860385 416.0
24084.0 303.0 0 188.39267459181588 417.0
24106.0 301.0 0 197.26465519759324 417.0
24129.0 296.0 0 206.1366358033706 417.0
24151.0 425.0 500 215.00861640914798 417.0
24174.0 304.0 0 223.88059701492537 418.0
24195.0 303.0 0 229.1708876432318 418.0
24218.0 295.0 0 234.46117827153824 418.0
24240.0 286.0 0 239.75146889984467 418.0
24263.0 293.0 0 245.0417595281511 419.0
24285.0 303.0 0 250.33205015645754 419.0
24307.0 322.0 0 255.62234078476396 419.0
24329.0 322.0 0 260.9126314130704 419.0
24372.0 530.0 500 266.20292204137684 418.0
24394.0 347.0 0 271.49321266968326 418.0
24416.0 325.0 0 264.48974071858845 417.0
24439.0 329.0 0 257.4862687674936 416.0
24461.0 328.0 0 250.48279681639875 416.0
24484.0 327.0 0 243.4793248653039 415.0
24505.0 314.0 0 236.4758529142091 414.0
24528.0 291.0 0 229.47238096311426 414.0
24550.0 292.0 0 222.46890901201942 413.0
24573.0 437.0 0 215.4654370609246 413.0
24596.0 298.0 0 208.46196510982975 412.0
24617.0 270.0 0 201.4584931587349 411.0
24640.0 263.0 0 194.45502120764007 411.0
24662.0 276.0 0 187.45154925654526 410.0
24685.0 267.0 0 180.4480773054504 409.0
24707.0 297.0 0 173.4446053543556 409.0
24729.0 319.0 0 166.44113340326072 408.0
24751.0 318.0 0 159.4376614521659 408.0
24774.0 318.0 0 152.43418950107105 407.0
24796.0 308.0 0 145.43071754997624 406.0
24819.0 311.0 0 138.4272455988814 406.0
24841.0 311.0 0 131.42377364778656 406.0
24883.0 529.0 500 124.42030169669172 407.0
24906.0 339.0 0 117.41682974559687 407.0
24927.0 339.0 0 117.6683800673812 408.0
24950.0 330.0 0 117.9199303891655 409.0
24972.0 324.0 0 118.17148071094982 409.0
24995.0 306.0 0 118.42303103273413 410.0
25017.0 218.0 0 118.67458135451845 410.0
25040.0 213.0 0 118.92613167630276 411.0
25061.0 219.0 0 119.17768199808708 411.0
25084.0 226.0 0 119.42923231987139 412.0
25107.0 248.0 0 119.68078264165571 412.0
25129.0 252.0 0 119.93233296344002 413.0
25152.0 274.0 0 120.18388328522434 413.0
25173.0 286.0 0 120.43543360700865 414.0
25196.0 282.0 0 120.68698392879297 414.0
25218.0 283.0 0 120.93853425057728 415.0
25241.0 272.0 0 121.1900845723616 415.0
25263.0 289.0 0 121.4416348941459 416.0
25285.0 311.0 0 121.69318521593023 417.0
25307.0 299.0 0 121.94473553771454 417.0
25330.0 299.0 0 122.19628585949886 417.0
25372.0 507.0 500 122.44783618128317 416.0
25394.0 343.0 0 122.69938650306749 416.0
25417.0 337.0 0 123.29087457701725 415.0
25439.0 334.0 0 123.88236265096701 415.0
25462.0 324.0 0 124.47385072491677 414.0
25483.0 315.0 0 125.06533879886655 414.0
25506.0 300.0 0 125.65682687281631 413.0
25528.0 304.0 0 126.24831494676607 413.0
25551.0 310.0 0 126.83980302071583 412.0
25573.0 329.0 0 127.4312910946656 412.0
25595.0 332.0 0 128.02277916861536 411.0
25617.0 336.0 0 128.61426724256512 410.0
25640.0 326.0 0 129.20575531651488 410.0
25663.0 319.0 0 129.79724339046464 409.0
25685.0 323.0 0 130.3887314644144 409.0
25707.0 356.0 0 130.9802195383642 408.0
25729.0 327.0 0 131.57170761231396 408.0
25752.0 299.0 0 132.16319568626372 407.0
25774.0 299.0 0 132.75468376021348 407.0
25797.0 284.0 0 133.34617183416324 406.0
25818.0 412.0 500 133.937659908113 406.0
25841.0 412.0 0 134.52914798206277 406.0
25884.0 516.0 500 521.8100285364859 406.0
25905.0 342.0 0 909.0909090909091 406.0
25928.0 336.0 0 862.8064351378958 406.0
25950.0 325.0 0 816.5219611848826 406.0
25973.0 325.0 0 770.2374872318693 406.0
25995.0 334.0 0 723.953013278856 407.0
26017.0 308.0 0 677.6685393258427 407.0
26039.0 288.0 0 631.3840653728294 407.0
26062.0 289.0 0 585.0995914198161 407.0
26084.0 292.0 0 538.8151174668028 407.0
26107.0 286.0 0 492.5306435137896 407.0
26128.0 320.0 0 446.2461695607763 407.0
26151.0 301.0 0 399.96169560776303 407.0
26174.0 281.0 0 353.6772216547497 408.0
26196.0 279.0 0 307.3927477017364 408.0
26219.0 261.0 0 261.10827374872315 408.0
26240.0 390.0 500 214.82379979570987 408.0
26263.0 280.0 0 168.53932584269663 408.0
26285.0 266.0 0 225.74055158324822 408.0
26308.0 267.0 0 282.9417773237998 408.0
26330.0 267.0 0 340.1430030643514 408.0
26372.0 523.0 500 397.34422880490297 408.0
26395.0 340.0 0 454.54545454545456 408.0
26417.0 338.0 0 439.8621041879469 408.0
26439.0 334.0 0 425.17875383043923 408.0
26461.0 332.0 0 410.49540347293157 407.0
26484.0 338.0 0 395.8120531154239 407.0
26506.0 361.0 0 381.12870275791624 407.0
26529.0 349.0 0 366.4453524004086 407.0
26550.0 389.0 500 351.7620020429009 407.0
26573.0 374.0 0 337.07865168539325 407.0
26595.0 319.0 0 325.87161800644947 406.0
26618.0 304.0 0 314.6645843275057 406.0
26640.0 307.0 0 303.4575506485619 406.0
26662.0 469.0 0 292.2505169696181 406.0
26684.0 364.0 0 281.0434832906743 406.0
26707.0 306.0 0 269.83644961173053 405.0
26730.0 292.0 0 258.62941593278674 405.0
26752.0 307.0 0 247.42238225384293 405.0
26775.0 301.0 0 236.2153485748991 405.0
26796.0 317.0 0 225.00831489595532 405.0
26819.0 353.0 0 213.80128121701154 405.0
26841.0 353.0 0 202.59424753806778 404.0
26883.0 537.0 500 191.38721385912396 404.0
26906.0 344.0 0 180.18018018018017 404.0
26928.0 338.0 0 193.16346049019316 403.0
26951.0 337.0 0 206.14674080020615 403.0
26973.0 332.0 0 219.1300211102191 403.0
26995.0 330.0 0 232.11330142023212 403.0
27017.0 306.0 0 245.09658173024508 403.0
27040.0 303.0 0 258.07986204025804 402.0
27062.0 275.0 0 271.06314235027105 402.0
27085.0 383.0 500 284.04642266028407 402.0
27106.0 323.0 0 297.029702970297 402.0
27129.0 280.0 0 289.6383388338834 401.0
27151.0 269.0 0 282.24697469746974 401.0
27174.0 289.0 0 274.8556105610561 401.0
27196.0 280.0 0 267.46424642464245 401.0
27218.0 289.0 0 260.0728822882288 401.0
27241.0 328.0 0 252.68151815181517 400.0
27263.0 354.0 0 245.29015401540153 400.0
27286.0 340.0 0 237.8987898789879 400.0
27308.0 344.0 0 230.50742574257427 400.0
27330.0 344.0 0 223.1160616061606 399.0
27373.0 521.0 500 215.72469746974699 399.0
27395.0 343.0 0 208.33333333333334 398.0
27417.0 338.0 0 204.20076498843622 398.0
27439.0 332.0 0 200.06819664353912 397.0
27462.0 338.0 0 195.935628298642 397.0
27484.0 356.0 0 191.80305995374488 396.0
27507.0 409.0 0 187.67049160884778 396.0
27528.0 451.0 0 183.53792326395066 395.0
27551.0 363.0 0 179.40535491905356 395.0
27573.0 344.0 0 175.27278657415644 395.0
27596.0 346.0 0 171.14021822925935 394.0
27618.0 344.0 0 167.00764988436222 394.0
27640.0 365.0 0 162.8750815394651 393.0
27662.0 376.0 0 158.742513194568 393.0
27685.0 402.0 0 154.60994484967088 392.0
27707.0 405.0 0 150.47737650477376 392.0
27730.0 422.0 0 146.34480815987666 391.0
27751.0 419.0 0 142.21223981497954 391.0
27774.0 398.0 0 138.07967147008242 391.0
27797.0 409.0 0 133.94710312518532 390.0
27819.0 413.0 0 129.81453478028823 390.0
27842.0 413.0 0 125.6819664353911 390.0
27884.0 544.0 500 121.54939809049398 390.0
27906.0 340.0 0 117.41682974559687 390.0
27929.0 327.0 0 119.82238950446988 390.0
27950.0 335.0 0 122.22794926334288 390.0
27973.0 331.0 0 124.63350902221589 390.0
27995.0 364.0 0 127.0390687810889 390.0
28018.0 366.0 0 129.4446285399619 390.0
28040.0 376.0 0 131.85018829883492 390.0
28062.0 387.0 0 134.25574805770793 390.0
28084.0 425.0 0 136.66130781658092 390.0
28107.0 445.0 0 139.06686757545393 390.0
28129.0 464.0 0 141.47242733432694 390.0
28152.0 487.0 0 143.87798709319995 390.0
28173.0 519.0 0 146.28354685207296 390.0
28196.0 527.0 0 148.68910661094594 390.0
28218.0 527.0 0 151.09466636981898 390.0
28241.0 497.0 0 153.50022612869196 390.0
28263.0 543.0 500 155.90578588756497 390.0
28285.0 517.0 0 158.31134564643799 390.0
28308.0 476.0 0 256.3481881339111 390.0
28330.0 476.0 0 354.38503062138415 390.0
28372.0 533.0 500 452.4218731088572 390.0
28395.0 337.0 0 550.4587155963303 391.0
28417.0 318.0 0 528.9175448064306 391.0
28440.0 317.0 0 507.37637401653086 392.0
28462.0 313.0 0 485.8352032266311 392.0
28484.0 340.0 0 464.29403243673136 393.0
28506.0 366.0 0 442.75286164683166 393.0
28529.0 425.0 0 421.2116908569319 394.0
28551.0 428.0 0 399.67052006703216 394.0
28574.0 412.0 0 378.1293492771324 394.0
28595.0 419.0 0 356.58817848723265 395.0
28618.0 435.0 0 335.04700769733296 395.0
28640.0 469.0 0 313.50583690743315 396.0
28663.0 435.0 0 291.96466611753345 396.0
28685.0 456.0 0 270.4234953276337 397.0
28707.0 466.0 0 248.882324537734 397.0
28729.0 414.0 0 227.34115374783426 398.0
28752.0 353.0 0 205.79998295793456 398.0
28774.0 352.0 0 184.25881216803475 398.0
28797.0 491.0 500 162.71764137813506 399.0
28819.0 371.0 0 141.1764705882353 399.0
28841.0 371.0 0 324.00270453008795 399.0
28884.0 523.0 500 506.82893847194055 398.0
28906.0 339.0 0 689.6551724137931 397.0
28928.0 332.0 0 662.6692508546664 396.0
28951.0 322.0 0 635.6833292955396 395.0
28973.0 316.0 0 608.6974077364129 395.0
28996.0 316.0 0 581.7114861772861 394.0
29017.0 296.0 0 554.7255646181593 393.0
29040.0 302.0 0 527.7396430590326 393.0
29062.0 302.0 0 500.75372149990585 392.0
29085.0 292.0 0 473.76779994077907 391.0
29107.0 314.0 0 446.7818783816523 390.0
29129.0 299.0 0 419.79595682252557 390.0
29151.0 273.0 0 392.81003526339873 389.0
29174.0 266.0 0 365.824113704272 388.0
29196.0 276.0 0 338.83819214514523 388.0
29219.0 403.0 0 311.8522705860185 387.0
29240.0 285.0 0 284.8663490268917 386.0
29263.0 279.0 0 257.880427467765 385.0
29285.0 262.0 0 230.89450590863822 385.0
29308.0 233.0 0 203.90858434951144 384.0
29331.0 233.0 0 176.92266279038472 384.0
29372.0 526.0 500 149.936741231258 384.0
29395.0 345.0 0 122.95081967213115 384.0
29418.0 330.0 0 159.9815033040469 385.0
29439.0 321.0 0 197.01218693596263 385.0
29462.0 334.0 0 234.0428705678784 385.0
29484.0 313.0 0 271.07355419979416 386.0
29507.0 289.0 0 308.1042378317099 386.0
29529.0 400.0 500 345.13492146362563 386.0
29551.0 281.0 0 382.1656050955414 387.0
29573.0 240.0 0 382.5155735983762 387.0
29596.0 267.0 0 382.8655421012109 387.0
29618.0 296.0 0 383.2155106040457 388.0
29641.0 460.0 0 383.5654791068804 388.0
29663.0 262.0 0 383.91544760971516 388.0
29685.0 304.0 500 384.2654161125499 389.0
29707.0 329.0 0 384.61538461538464 389.0
29730.0 199.0 0 554.9177190968236 389.0
29752.0 247.0 500 725.2200535782625 389.0
29775.0 347.0 0 895.5223880597015 390.0
29796.0 264.0 0 808.0209638828757 390.0
29819.0 271.0 0 720.51953970605 390.0
29841.0 271.0 0 633.0181155292241 391.0
29883.0 523.0 500 545.5166913523983 391.0
29906.0 341.0 0 458.01526717557255 391.0
29929.0 333.0 0 442.43002544529264 392.0
29951.0 330.0 0 426.84478371501274 392.0
29974.0 327.0 0 411.25954198473283 392.0
29995.0 352.0 0 395.67430025445293 392.0
30018.0 426.0 0 380.089058524173 392.0
30040.0 391.0 0 364.5038167938931 393.0
30063.0 488.0 500 348.9185750636132 393.0
30085.0 517.0 0 333.3333333333333 393.0
30107.0 442.0 0 418.5393258426966 393.0
30129.0 358.0 0 503.74531835205994 394.0
30152.0 404.0 500 588.9513108614233 394.0
30174.0 388.0 0 674.1573033707865 394.0
30197.0 320.0 0 752.468505277494 394.0
30218.0 366.0 500 830.7797071842016 394.0
30241.0 426.0 0 909.0909090909091 395.0
30263.0 368.0 0 822.0918866080157 395.0
30286.0 359.0 0 735.0928641251222 395.0
30308.0 377.0 0 648.0938416422288 395.0
30330.0 377.0 0 561.0948191593353 396.0
30373.0 544.0 500 474.09579667644186 396.0
30395.0 344.0 0 387.0967741935484 396.0
30417.0 326.0 0 374.84905985854755 396.0
30439.0 320.0 0 362.6013455235467 396.0
30462.0 336.0 0 350.3536311885458 396.0
30485.0 304.0 0 338.10591685354495 396.0
30507.0 142.0 0 325.8582025185441 396.0
30529.0 129.0 0 313.6104881835432 396.0
30551.0 104.0 0 301.36277384854236 396.0
30574.0 85.0 0 289.1150595135415 396.0
30595.0 113.0 0 276.86734517854063 396.0
30618.0 146.0 0 264.61963084353977 396.0
30639.0 173.0 0 252.3719165085389 396.0
30662.0 151.0 0 240.12420217353804 396.0
30684.0 166.0 0 227.87648783853717 396.0
30707.0 194.0 0 215.6287735035363 396.0
30729.0 186.0 0 203.38105916853544 396.0
30751.0 200.0 0 191.13334483353458 396.0
30773.0 209.0 0 178.88563049853371 396.0
30796.0 218.0 0 166.63791616353285 396.0
30818.0 194.0 0 154.39020182853199 396.0
30841.0 194.0 0 142.14248749353112 396.0
30883.0 496.0 500 129.89477315853026 395.0
30905.0 347.0 0 117.6470588235294 395.0
30928.0 324.0 0 117.89961886393901 395.0
30949.0 336.0 0 118.15217890434862 394.0
30972.0 332.0 0 118.40473894475822 394.0
30995.0 318.0 0 118.65729898516783 393.0
31017.0 311.0 0 118.90985902557743 393.0
31040.0 340.0 0 119.16241906598705 393.0
31061.0 340.0 0 119.41497910639666 392.0
31084.0 341.0 0 119.66753914680626 392.0
31106.0 354.0 0 119.92009918721587 391.0
31129.0 344.0 0 120.17265922762547 391.0
31151.0 330.0 0 120.42521926803508 391.0
31173.0 337.0 0 120.67777930844468 390.0
31195.0 381.0 0 120.93033934885429 390.0
31218.0 355.0 0 121.1828993892639 389.0
31240.0 318.0 0 121.4354594296735 389.0
31263.0 323.0 0 121.6880194700831 389.0
31284.0 346.0 0 121.94057951049273 388.0
31307.0 398.0 0 122.19313955090233 388.0
31329.0 398.0 0 122.44569959131194 388.0
31371.0 524.0 500 122.69825963172154 389.0
31394.0 338.0 0 122.95081967213115 389.0
31416.0 336.0 0 125.74125377781849 390.0
31439.0 320.0 0 128.5316878835058 391.0
31461.0 338.0 0 131.32212198919314 391.0
31483.0 340.0 0 134.1125560948805 392.0
31505.0 334.0 0 136.9029902005678 393.0
31528.0 344.0 0 139.69342430625517 393.0
31551.0 319.0 0 142.4838584119425 394.0
31573.0 319.0 0 145.27429251762982 394.0
31595.0 328.0 0 148.06472662331717 395.0
31617.0 361.0 0 150.8551607290045 396.0
31640.0 311.0 0 153.64559483469182 396.0
31662.0 293.0 0 156.43602894037917 397.0
31685.0 294.0 0 159.2264630460665 398.0
31706.0 293.0 0 162.01689715175382 398.0
31729.0 433.0 500 164.80733125744118 399.0
31751.0 301.0 0 167.5977653631285 399.0
31774.0 295.0 0 204.59986940433868 400.0
31796.0 286.0 0 241.60197344554888 401.0
31819.0 300.0 0 278.6040774867591 401.0
31840.0 300.0 0 315.6061815279693 401.0
31883.0 524.0 500 352.60828556917943 400.0
31905.0 336.0 0 389.61038961038963 400.0
31927.0 334.0 0 379.48784217440937 400.0
31950.0 328.0 0 369.3652947384291 399.0
31972.0 329.0 0 359.24274730244883 399.0
31995.0 312.0 0 349.12019986646857 398.0
32016.0 296.0 0 338.99765243048824 398.0
32039.0 278.0 0 328.875104994508 398.0
32062.0 233.0 0 318.7525575585277 397.0
32084.0 278.0 500 308.63001012254745 397.0
32107.0 207.0 0 298.5074626865672 396.0
32129.0 249.0 500 815.9203980099503 396.0
32151.0 300.0 0 1333.3333333333333 396.0
32173.0 242.0 0 1173.8095238095239 395.0
32196.0 197.0 0 1014.2857142857142 395.0
32218.0 192.0 0 854.7619047619047 394.0
32241.0 270.0 500 695.2380952380952 394.0
32262.0 244.0 0 535.7142857142857 394.0
32285.0 239.0 0 660.1731601731601 393.0
32307.0 282.0 500 784.6320346320347 393.0
32330.0 282.0 0 909.0909090909091 393.0
32372.0 518.0 500 916.0839160839162 394.0
32394.0 350.0 0 923.0769230769231 395.0
32417.0 332.0 0 846.1538461538462 396.0
32439.0 332.0 0 769.2307692307693 397.0
32461.0 329.0 0 692.3076923076924 398.0
32483.0 331.0 0 615.3846153846155 399.0
32506.0 227.0 0 538.4615384615385 400.0
32528.0 288.0 500 461.5384615384616 401.0
32551.0 348.0 0 384.61538461538464 402.0
32572.0 266.0 0 554.9177190968236 403.0
32595.0 326.0 500 725.2200535782625 404.0
32618.0 272.0 0 895.5223880597015 405.0
32640.0 229.0 0 820.8955223880597 406.0
32663.0 249.0 0 746.2686567164179 407.0
32684.0 338.0 0 671.6417910447761 408.0
32707.0 164.0 0 597.0149253731344 409.0
32729.0 329.0 500 522.3880597014925 409.0
32752.0 392.0 0 447.76119402985074 410.0
32774.0 255.0 0 438.0693932932739 411.0
32796.0 291.0 0 428.37759255669704 412.0
32818.0 281.0 0 418.6857918201202 413.0
32841.0 281.0 0 408.99399108354334 413.0
32883.0 525.0 500 399.3021903469665 413.0
32905.0 348.0 0 389.61038961038963 413.0
32928.0 337.0 0 388.89681746824607 412.0
32950.0 331.0 0 388.1832453261025 412.0
32973.0 332.0 0 387.46967318395895 412.0
32994.0 304.0 0 386.7561010418153 411.0
33017.0 223.0 0 386.04252889967177 411.0
33039.0 405.0 500 385.3289567575282 411.0
33062.0 240.0 0 384.61538461538464 411.0
33084.0 397.0 500 858.9743589743589 410.0
33106.0 293.0 0 1333.3333333333333 410.0
33129.0 408.0 500 1333.3333333333333 410.0
33151.0 260.0 0 1333.3333333333333 410.0
33174.0 380.0 500 1333.3333333333333 409.0
33196.0 376.0 0 1333.3333333333333 409.0
33218.0 335.0 0 1204.5454545454545 409.0
33240.0 345.0 0 1075.7575757575758 409.0
33263.0 358.0 0 946.9696969696969 408.0
33285.0 400.0 0 818.1818181818181 408.0
33308.0 365.0 0 689.3939393939394 408.0
33329.0 365.0 0 560.6060606060605 408.0
33372.0 513.0 500 431.81818181818176 408.0
33395.0 345.0 0 303.030303030303 409.0
33416.0 330.0 0 327.1521181968943 409.0
33439.0 335.0 0 351.2739333634856 409.0
33461.0 336.0 0 375.39574853007684 410.0
33484.0 313.0 0 399.51756369666816 410.0
33506.0 406.0 500 423.6393788632595 410.0
33528.0 412.0 0 447.76119402985074 411.0
33550.0 513.0 0 504.36022136508467 411.0
33573.0 479.0 0 560.9592487003187 411.0
33595.0 557.0 500 617.5582760355526 412.0
33618.0 539.0 0 674.1573033707865 412.0
33639.0 561.0 0 646.8734210716262 413.0
33662.0 549.0 0 619.5895387724659 413.0
33685.0 561.0 0 592.3056564733056 413.0
33707.0 556.0 0 565.0217741741452 414.0
33730.0 553.0 0 537.7378918749849 414.0
33752.0 561.0 0 510.45400957582467 414.0
33774.0 445.0 0 483.1701272766643 415.0
33796.0 454.0 0 455.886244977504 415.0
33819.0 555.0 0 428.60236267834364 415.0
33841.0 555.0 0 401.31848037918337 415.0
33883.0 537.0 0 374.03459808002304 415.0
33906.0 325.0 0 346.7507157808628 415.0
33928.0 310.0 0 319.4668334817024 414.0
33951.0 313.0 0 292.1829511825421 414.0
33972.0 312.0 0 264.8990688833818 414.0
33995.0 344.0 0 237.61518658422148 413.0
34017.0 458.0 0 210.3313042850612 413.0
34040.0 435.0 0 183.04742198590083 413.0
34062.0 558.0 500 155.76353968674061 413.0
34084.0 499.0 0 128.4796573875803 412.0
34106.0 560.0 500 746.058010511972 412.0
34129.0 540.0 0 1363.6363636363637 412.0
34151.0 554.0 0 1198.051948051948 412.0
34174.0 561.0 0 1032.4675324675325 411.0
34196.0 449.0 0 866.8831168831169 411.0
34218.0 519.0 500 701.2987012987012 411.0
34241.0 555.0 0 535.7142857142857 411.0
34263.0 465.0 0 651.2605042016806 410.0
34286.0 554.0 500 766.8067226890756 410.0
34307.0 334.0 0 882.3529411764706 410.0
34330.0 334.0 0 818.1203515889115 410.0
34373.0 533.0 500 753.8877620013523 410.0
34394.0 327.0 0 689.6551724137931 410.0
34417.0 316.0 0 645.5831073227431 410.0
34439.0 307.0 0 601.5110422316932 410.0
34462.0 314.0 0 557.4389771406431 410.0
34484.0 302.0 0 513.3669120495932 410.0
34506.0 309.0 0 469.2948469585432 410.0
34528.0 247.0 0 425.2227818674932 410.0
34551.0 294.0 500 381.15071677644323 410.0
34573.0 299.0 0 337.07865168539325 410.0
34596.0 243.0 0 327.64548046285427 410.0
34617.0 232.0 0 318.2123092403153 410.0
34640.0 244.0 0 308.7791380177763 410.0
34662.0 314.0 0 299.3459667952373 410.0
34685.0 312.0 0 289.9127955726983 410.0
34708.0 244.0 0 280.4796243501593 410.0
34729.0 244.0 0 271.04645312762034 410.0
34752.0 244.0 0 261.61328190508135 410.0
34774.0 248.0 0 252.18011068254233 410.0
34797.0 248.0 0 242.74693946000335 410.0
34819.0 291.0 500 233.31376823746436 410.0
34841.0 291.0 0 223.88059701492537 410.0
34884.0 523.0 500 573.4787600459242 410.0
34906.0 344.0 0 923.0769230769231 410.0
34928.0 322.0 0 884.9756800576473 410.0
34950.0 326.0 0 846.8744370383715 410.0
34973.0 326.0 0 808.7731940190956 410.0
34995.0 341.0 0 770.6719509998198 410.0
35018.0 291.0 0 732.5707079805441 410.0
35039.0 246.0 0 694.4694649612683 410.0
35062.0 255.0 0 656.3682219419925 410.0
35084.0 274.0 0 618.2669789227166 410.0
35107.0 416.0 0 580.1657359034409 410.0
35129.0 262.0 0 542.064492884165 410.0
35151.0 256.0 0 503.9632498648892 410.0
35173.0 266.0 0 465.86200684561345 410.0
35196.0 255.0 0 427.7607638263376 410.0
35219.0 268.0 0 389.6595208070619 410.0
35241.0 289.0 0 351.558277787786 410.0
35263.0 330.0 0 313.4570347685102 410.0
35285.0 317.0 0 275.3557917492344 410.0
35308.0 312.0 0 237.25454872995863 410.0
35330.0 312.0 0 199.15330571068273 409.0
35372.0 527.0 500 161.05206269140706 409.0
35395.0 339.0 0 122.95081967213115 409.0
35417.0 329.0 0 159.9815033040469 409.0
35440.0 334.0 0 197.01218693596263 409.0
35461.0 338.0 0 234.0428705678784 409.0
35484.0 320.0 0 271.07355419979416 409.0
35506.0 286.0 0 308.1042378317099 408.0
35529.0 417.0 500 345.13492146362563 408.0
35551.0 336.0 0 382.1656050955414 408.0
35573.0 297.0 0 367.9555037229748 408.0
35595.0 283.0 0 353.7454023504082 408.0
35618.0 283.0 0 339.5353009778416 408.0
35640.0 300.0 0 325.325199605275 408.0
35663.0 306.0 0 311.11509823270836 407.0
35684.0 316.0 0 296.90499686014175 407.0
35707.0 324.0 0 282.69489548757514 407.0
35729.0 350.0 0 268.4847941150085 407.0
35752.0 327.0 0 254.2746927424419 407.0
35775.0 342.0 0 240.0645913698753 407.0
35797.0 341.0 0 225.8544899973087 407.0
35819.0 356.0 0 211.64438862474208 407.0
35841.0 356.0 0 197.43428725217547 406.0
35884.0 518.0 500 183.22418587960885 406.0
35906.0 341.0 0 169.01408450704224 405.0
35928.0 328.0 0 166.80862269732916 405.0
35951.0 329.0 0 164.60316088761607 404.0
35973.0 342.0 0 162.39769907790298 404.0
35996.0 325.0 0 160.1922372681899 404.0
36017.0 265.0 0 157.9867754584768 403.0
36040.0 268.0 0 155.78131364876373 403.0
36062.0 277.0 0 153.57585183905064 403.0
36085.0 289.0 0 151.37039002933759 402.0
36107.0 301.0 0 149.1649282196245 402.0
36129.0 316.0 0 146.9594664099114 402.0
36151.0 345.0 0 144.75400460019833 401.0
36174.0 312.0 0 142.54854279048524 401.0
36196.0 288.0 0 140.34308098077216 401.0
36219.0 301.0 0 138.13761917105907 400.0
36240.0 307.0 0 135.932157361346 400.0
36263.0 315.0 0 133.7266955516329 399.0
36286.0 323.0 0 131.52123374191981 399.0
36308.0 300.0 0 129.31577193220673 399.0
36331.0 300.0 0 127.11031012249364 399.0
36373.0 530.0 500 124.90484831278057 399.0
36395.0 335.0 0 122.69938650306749 399.0
36418.0 329.0 0 123.7069962466537 400.0
36439.0 329.0 0 124.71460599023993 400.0
36462.0 330.0 0 125.72221573382615 400.0
36484.0 319.0 0 126.72982547741236 400.0
36507.0 285.0 0 127.73743522099859 401.0
36529.0 319.0 0 128.74504496458482 401.0
36551.0 316.0 0 129.75265470817104 401.0
36573.0 328.0 0 130.76026445175725 401.0
36596.0 325.0 0 131.76787419534347 402.0
36618.0 327.0 0 132.77548393892968 402.0
36641.0 324.0 0 133.78309368251593 402.0
36662.0 334.0 0 134.79070342610214 403.0
36685.0 343.0 0 135.79831316968836 403.0
36707.0 350.0 0 136.80592291327457 403.0
36730.0 324.0 0 137.8135326568608 403.0
36752.0 308.0 0 138.821142400447 404.0
36774.0 285.0 0 139.82875214403325 404.0
36796.0 336.0 500 140.83636188761946 404.0
36819.0 400.0 0 141.84397163120568 404.0
36842.0 400.0 0 321.8353750268644 404.0
36884.0 537.0 500 501.82677842252315 404.0
36906.0 339.0 0 681.8181818181819 404.0
36929.0 335.0 0 655.1934772793669 404.0
36951.0 332.0 0 628.5687727405519 403.0
36973.0 330.0 0 601.944068201737 403.0
36995.0 333.0 0 575.319363662922 403.0
37018.0 312.0 0 548.694659124107 403.0
37040.0 321.0 0 522.0699545852921 403.0
37063.0 325.0 0 495.4452500464771 403.0
37084.0 319.0 0 468.82054550766213 402.0
37107.0 329.0 0 442.19584096884716 402.0
37129.0 330.0 0 415.57113643003214 402.0
37152.0 298.0 0 388.9464318912172 402.0
37174.0 287.0 0 362.3217273524022 402.0
37196.0 284.0 0 335.69702281358724 402.0
37218.0 311.0 0 309.0723182747723 401.0
37241.0 360.0 0 282.44761373595725 401.0
37263.0 293.0 0 255.82290919714234 401.0
37286.0 272.0 0 229.1982046583273 401.0
37308.0 276.0 0 202.5735001195124 401.0
37330.0 276.0 0 175.94879558069738 400.0
37373.0 515.0 500 149.3240910418824 400.0
37395.0 345.0 0 122.69938650306749 400.0
37417.0 328.0 0 122.45927028681882 400.0
37440.0 328.0 0 122.21915407057016 400.0
37462.0 338.0 0 121.97903785432149 399.0
37485.0 314.0 0 121.73892163807282 399.0
37506.0 279.0 0 121.49880542182416 399.0
37529.0 302.0 0 121.25868920557551 399.0
37551.0 340.0 0 121.01857298932684 399.0
37574.0 269.0 0 120.77845677307818 399.0
37596.0 249.0 0 120.53834055682951 398.0
37619.0 240.0 0 120.29822434058084 398.0
37640.0 273.0 0 120.05810812433218 398.0
37663.0 380.0 0 119.81799190808351 398.0
37685.0 247.0 0 119.57787569183485 398.0
37708.0 258.0 0 119.33775947558618 397.0
37730.0 283.0 0 119.09764325933752 397.0
37752.0 227.0 0 118.85752704308885 397.0
37774.0 262.0 0 118.6174108268402 397.0
37797.0 328.0 0 118.37729461059153 397.0
37819.0 291.0 0 118.13717839434287 397.0
37842.0 291.0 0 117.8970621780942 397.0
37884.0 510.0 500 117.65694596184554 397.0
37907.0 347.0 0 117.41682974559687 397.0
37929.0 331.0 0 126.28881035137425 397.0
37951.0 329.0 0 135.16079095715162 398.0
37973.0 341.0 0 144.03277156292899 398.0
37996.0 324.0 0 152.90475216870635 398.0
38018.0 247.0 0 161.77673277448375 398.0
38041.0 244.0 0 170.6487133802611 398.0
38062.0 273.0 0 179.5206939860385 398.0
38085.0 455.0 0 188.39267459181588 399.0
38107.0 261.0 0 197.26465519759324 399.0
38130.0 234.0 0 206.1366358033706 399.0
38152.0 287.0 500 215.00861640914798 399.0
38174.0 263.0 0 223.88059701492537 399.0
38196.0 238.0 0 229.3080054274084 399.0
38219.0 271.0 0 234.73541383989146 400.0
38241.0 318.0 0 240.1628222523745 400.0
38264.0 251.0 0 245.59023066485753 400.0
38285.0 280.0 0 251.0176390773406 400.0
38308.0 349.0 0 256.44504748982365 400.0
38330.0 349.0 0 261.8724559023067 400.0
38372.0 534.0 500 267.2998643147897 400.0
38395.0 349.0 0 272.72727272727275 400.0
38417.0 330.0 0 265.65728305785126 400.0
38440.0 330.0 0 258.58729338842977 400.0
38463.0 338.0 0 251.51730371900828 400.0
38484.0 375.0 0 244.4473140495868 400.0
38507.0 537.0 0 237.3773243801653 400.0
38529.0 501.0 0 230.30733471074382 400.0
38552.0 462.0 0 223.23734504132233 400.0
38574.0 418.0 0 216.16735537190084 400.0
38596.0 358.0 0 209.09736570247935 399.0
38618.0 359.0 0 202.02737603305786 399.0
38641.0 393.0 0 194.95738636363637 399.0
38663.0 418.0 0 187.88739669421489 399.0
38686.0 401.0 0 180.8174070247934 399.0
38707.0 418.0 0 173.7474173553719 399.0
38730.0 416.0 0 166.67742768595042 399.0
38752.0 369.0 0 159.60743801652893 399.0
38775.0 371.0 0 152.53744834710744 399.0
38797.0 408.0 0 145.46745867768595 399.0
38820.0 377.0 0 138.39746900826447 399.0
38841.0 377.0 0 131.32747933884298 399.0
38884.0 515.0 500 124.25748966942149 399.0
38906.0 346.0 0 117.1875 399.0
38928.0 334.0 0 144.43850384078212 399.0
38951.0 328.0 0 171.68950768156424 399.0
38974.0 325.0 0 198.94051152234638 399.0
38996.0 324.0 0 226.1915153631285 399.0
39019.0 349.0 0 253.44251920391062 399.0
39040.0 290.0 0 280.69352304469277 399.0
39063.0 333.0 500 307.9445268854749 399.0
39085.0 371.0 0 335.195530726257 399.0
39108.0 348.0 0 324.2995966009122 399.0
39130.0 352.0 0 313.40366247556733 399.0
39152.0 336.0 0 302.5077283502225 399.0
39174.0 363.0 0 291.61179422487766 399.0
39197.0 328.0 0 280.71586009953285 399.0
39219.0 330.0 0 269.81992597418804 399.0
39242.0 353.0 0 258.9239918488432 399.0
39263.0 336.0 0 248.02805772349836 399.0
39286.0 291.0 0 237.13212359815353 399.0
39308.0 310.0 0 226.2361894728087 399.0
39331.0 310.0 0 215.34025534746388 400.0
39373.0 527.0 500 204.44432122211904 400.0
39395.0 345.0 0 193.5483870967742 400.0
39418.0 330.0 0 220.49370395374095 400.0
39440.0 336.0 0 247.4390208107077 400.0
39462.0 321.0 0 274.38433766767446 401.0
39484.0 307.0 0 301.32965452464117 401.0
39507.0 281.0 0 328.27497138160794 401.0
39530.0 326.0 500 355.22028823857465 401.0
39552.0 373.0 0 382.1656050955414 401.0
39574.0 280.0 0 382.8700578238281 401.0
39596.0 311.0 0 383.5745105521149 402.0
39619.0 313.0 0 384.27896328040157 402.0
39641.0 324.0 0 384.98341600868827 402.0
39664.0 275.0 0 385.68786873697496 402.0
39685.0 321.0 500 386.3923214652617 402.0
39708.0 327.0 0 387.0967741935484 403.0
39730.0 263.0 0 376.3981196304101 403.0
39753.0 252.0 0 365.69946506727183 403.0
39775.0 277.0 0 355.0008105041336 403.0
39797.0 398.0 0 344.3021559409953 403.0
39819.0 329.0 0 333.603501377857 403.0
39842.0 329.0 0 322.9048468147188 403.0
39884.0 519.0 500 312.2061922515805 403.0
39906.0 341.0 0 301.5075376884422 402.0
39929.0 335.0 0 292.992863822472 402.0
39951.0 329.0 0 284.47818995650175 401.0
39974.0 336.0 0 275.9635160905315 401.0
39995.0 333.0 0 267.4488422245613 401.0
40018.0 341.0 0 258.9341683585911 400.0
40041.0 348.0 0 250.41949449262086 400.0
40063.0 342.0 0 241.90482062665063 400.0
40086.0 334.0 0 233.3901467606804 399.0
40107.0 346.0 0 224.87547289471019 399.0
40130.0 372.0 0 216.36079902873996 399.0
40152.0 326.0 0 207.84612516276974 398.0
40175.0 289.0 0 199.33145129679951 398.0
40197.0 292.0 0 190.8167774308293 398.0
40219.0 309.0 0 182.30210356485907 397.0
40241.0 405.0 0 173.78742969888884 397.0
40264.0 299.0 0 165.27275583291862 396.0
40286.0 287.0 0 156.7580819669484 396.0
40309.0 311.0 0 148.24340810097817 396.0
40331.0 311.0 0 139.72873423500795 395.0
40373.0 511.0 500 131.21406036903772 395.0
40396.0 342.0 0 122.69938650306749 395.0
40417.0 330.0 0 122.45927028681882 395.0
40440.0 329.0 0 122.21915407057016 395.0
40462.0 340.0 0 121.97903785432149 395.0
40485.0 336.0 0 121.73892163807282 395.0
40507.0 306.0 0 121.49880542182416 395.0
40529.0 323.0 0 121.25868920557551 395.0
40551.0 347.0 0 121.01857298932684 395.0
40574.0 344.0 0 120.77845677307818 395.0
40597.0 316.0 0 120.53834055682951 394.0
40619.0 280.0 0 120.29822434058084 394.0
40641.0 288.0 0 120.05810812433218 394.0
40663.0 324.0 0 119.81799190808351 394.0
40686.0 411.0 0 119.57787569183485 394.0
40708.0 303.0 0 119.33775947558618 394.0
40731.0 291.0 0 119.09764325933752 394.0
40753.0 286.0 0 118.85752704308885 394.0
40775.0 290.0 0 118.6174108268402 394.0
40797.0 299.0 0 118.37729461059153 394.0
40820.0 322.0 0 118.13717839434287 394.0
40842.0 322.0 0 117.8970621780942 394.0
40884.0 530.0 500 117.65694596184554 395.0
40907.0 351.0 0 117.41682974559687 396.0
40929.0 329.0 0 132.46086105675147 396.0
40951.0 330.0 0 147.50489236790605 397.0
40973.0 332.0 0 162.54892367906066 397.0
40996.0 357.0 0 177.59295499021525 398.0
41018.0 352.0 0 192.63698630136986 399.0
41041.0 320.0 0 207.68101761252444 399.0
41063.0 321.0 0 222.72504892367903 400.0
41085.0 294.0 0 237.76908023483364 400.0
41108.0 397.0 500 252.81311154598825 401.0
41130.0 384.0 0 267.85714285714283 401.0
41153.0 318.0 0 264.0123034859877 402.0
41175.0 321.0 0 260.1674641148325 403.0
41197.0 289.0 0 256.32262474367735 403.0
41219.0 302.0 0 252.4777853725222 404.0
41242.0 329.0 0 248.63294600136703 404.0
41264.0 369.0 0 244.7881066302119 405.0
41287.0 354.0 0 240.94326725905674 406.0
41308.0 356.0 0 237.09842788790158 406.0
41331.0 356.0 0 233.25358851674642 406.0
41374.0 515.0 500 229.40874914559126 406.0
41395.0 344.0 0 225.5639097744361 406.0
41418.0 337.0 0 239.50325251330574 406.0
41440.0 323.0 0 253.44259525217538 406.0
41463.0 332.0 0 267.38193799104505 405.0
41485.0 343.0 0 281.3212807299147 405.0
41507.0 326.0 0 295.26062346878433 405.0
41529.0 314.0 0 309.199966207654 405.0
41552.0 464.0 500 323.1393089465236 405.0
41574.0 364.0 0 337.07865168539325 405.0
41597.0 346.0 0 325.87161800644947 404.0
41619.0 295.0 0 314.6645843275057 404.0
41641.0 311.0 0 303.4575506485619 404.0
41664.0 326.0 0 292.2505169696181 404.0
41686.0 340.0 0 281.0434832906743 404.0
41709.0 348.0 0 269.83644961173053 403.0
41730.0 371.0 0 258.62941593278674 403.0
41753.0 391.0 0 247.42238225384293 403.0
41775.0 383.0 0 236.2153485748991 403.0
41798.0 369.0 0 225.00831489595532 403.0
41820.0 385.0 0 213.80128121701154 403.0
41842.0 385.0 0 202.59424753806778 402.0
41885.0 526.0 500 191.38721385912396 402.0
41907.0 349.0 0 180.18018018018017 402.0
41929.0 333.0 0 189.1891891891892 401.0
41951.0 320.0 0 198.19819819819818 401.0
41974.0 335.0 0 207.2072072072072 401.0
41996.0 306.0 0 216.2162162162162 401.0
42019.0 176.0 0 225.22522522522522 401.0
42040.0 167.0 0 234.23423423423424 400.0
42063.0 176.0 0 243.24324324324323 400.0
42085.0 88.0 0 252.25225225225225 400.0
42107.0 132.0 500 261.26126126126127 400.0
42129.0 224.0 0 270.27027027027026 399.0
42151.0 204.0 0 278.6213179471606 399.0
42174.0 160.0 0 286.972365624051 399.0
42196.0 180.0 0 295.3234133009414 399.0
42219.0 214.0 0 303.67446097783176 399.0
42241.0 273.0 0 312.0255086547221 398.0
42263.0 199.0 0 320.3765563316125 398.0
42285.0 243.0 500 328.7276040085029 398.0
42308.0 211.0 0 337.07865168539325 398.0
42330.0 211.0 0 454.6041585948599 397.0
42372.0 506.0 500 572.1296655043266 397.0
42395.0 350.0 0 689.6551724137931 397.0
42417.0 332.0 0 658.8669950738916 397.0
42440.0 328.0 0 628.0788177339901 397.0
42461.0 327.0 0 597.2906403940887 397.0
42484.0 376.0 500 566.5024630541872 397.0
42506.0 316.0 0 535.7142857142857 397.0
42529.0 263.0 0 521.0554371002132 397.0
42551.0 271.0 0 506.3965884861407 397.0
42573.0 317.0 0 491.73773987206823 397.0
42595.0 283.0 0 477.07889125799574 396.0
42618.0 383.0 500 462.42004264392324 396.0
42640.0 288.0 0 447.76119402985074 396.0
42663.0 407.0 500 890.5472636815921 396.0
42684.0 293.0 0 1333.3333333333333 396.0
42707.0 272.0 0 1187.396351575456 396.0
42730.0 444.0 500 1041.4593698175788 396.0
42752.0 282.0 0 895.5223880597015 396.0
42775.0 406.0 500 1114.4278606965174 396.0
42796.0 242.0 0 1333.3333333333333 396.0
42819.0 239.0 0 1138.888888888889 396.0
42841.0 239.0 0 944.4444444444443 395.0
42883.0 516.0 500 750.0 395.0
42906.0 341.0 0 555.5555555555555 395.0
42928.0 341.0 0 530.7855626326964 395.0
42951.0 330.0 0 506.0155697098372 395.0
42973.0 329.0 0 481.24557678697806 395.0
42995.0 366.0 0 456.4755838641189 395.0
43017.0 139.0 0 431.70559094125974 395.0
43040.0 198.0 500 406.9355980184006 395.0
43062.0 243.0 0 382.1656050955414 395.0
43085.0 207.0 0 557.8073730939973 394.0
43106.0 255.0 500 733.4491410924531 394.0
43129.0 165.0 0 909.0909090909091 394.0
43151.0 180.0 0 831.6498316498316 394.0
43174.0 260.0 0 754.2087542087543 394.0
43196.0 149.0 0 676.7676767676768 394.0
43219.0 149.0 0 599.3265993265993 394.0
43241.0 190.0 500 521.8855218855219 394.0
43263.0 147.0 0 444.44444444444446 394.0
43286.0 162.0 0 446.4646464646465 394.0
43308.0 194.0 0 448.4848484848485 394.0
43331.0 194.0 0 450.5050505050505 394.0
43373.0 509.0 500 452.52525252525254 394.0
43395.0 345.0 0 454.54545454545456 394.0
43418.0 334.0 0 439.8621041879469 394.0
43439.0 336.0 0 425.17875383043923 394.0
43462.0 337.0 0 410.49540347293157 395.0
43484.0 294.0 0 395.8120531154239 395.0
43507.0 252.0 0 381.12870275791624 395.0
43529.0 130.0 0 366.4453524004086 395.0
43551.0 205.0 500 351.7620020429009 395.0
43573.0 175.0 0 337.07865168539325 395.0
43596.0 159.0 0 523.2265638101626 396.0
43618.0 217.0 500 709.374475934932 396.0
43641.0 113.0 0 895.5223880597015 396.0
43662.0 182.0 500 1129.5793758480327 396.0
43685.0 132.0 0 1363.6363636363637 396.0
43707.0 67.0 0 1207.5983717774764 397.0
43729.0 264.0 500 1051.560379918589 397.0
43751.0 239.0 0 895.5223880597015 397.0
43773.0 146.0 0 840.1811168874727 397.0
43796.0 110.0 0 784.839845715244 397.0
43818.0 178.0 500 729.4985745430153 397.0
43841.0 178.0 0 674.1573033707865 397.0
43883.0 501.0 500 798.6171132238549 396.0
43905.0 340.0 0 923.0769230769231 396.0
43928.0 335.0 0 843.8576349024111 396.0
43950.0 335.0 0 764.638346727899 395.0
43972.0 335.0 0 685.4190585533869 395.0
43994.0 307.0 0 606.1997703788749 394.0
44017.0 446.0 500 526.9804822043627 394.0
44039.0 331.0 0 447.76119402985074 394.0
44062.0 400.0 500 890.5472636815921 393.0
44083.0 406.0 0 1333.3333333333333 393.0
44106.0 329.0 0 1191.919191919192 392.0
44128.0 428.0 500 1050.5050505050506 392.0
44151.0 359.0 0 909.0909090909091 392.0
44173.0 517.0 500 1121.2121212121212 391.0
44195.0 282.0 0 1333.3333333333333 391.0
44217.0 266.0 0 1185.7379767827529 390.0
44240.0 300.0 0 1038.1426202321725 390.0
44262.0 308.0 0 890.547263681592 390.0
44285.0 288.0 0 742.9519071310116 389.0
44307.0 431.0 500 595.3565505804311 389.0
44329.0 431.0 0 447.76119402985074 389.0
44372.0 524.0 500 685.4190585533869 390.0
44394.0 343.0 0 923.0769230769231 391.0
44416.0 326.0 0 844.4187391555813 391.0
44439.0 326.0 0 765.7605552342395 392.0
44461.0 323.0 0 687.1023713128976 393.0
44484.0 321.0 0 608.4441873915558 394.0
44505.0 409.0 500 529.7860034702139 394.0
44528.0 368.0 0 451.1278195488722 395.0
44550.0 313.0 0 594.8695267580716 396.0
44573.0 359.0 500 738.6112339672711 396.0
44595.0 560.0 0 882.3529411764706 397.0
44617.0 432.0 0 830.3040317250495 398.0
44639.0 350.0 0 778.2551222736286 399.0
44662.0 399.0 500 726.2062128222076 399.0
44684.0 323.0 0 674.1573033707865 400.0
44707.0 328.0 0 629.4168488484418 401.0
44728.0 368.0 0 584.6763943260969 401.0
44751.0 413.0 0 539.935939803752 402.0
44773.0 372.0 0 495.1954852814073 403.0
44796.0 342.0 0 450.4550307590625 404.0
44819.0 379.0 0 405.7145762367177 404.0
44840.0 379.0 0 360.97412171437287 405.0
44883.0 541.0 500 316.23366719202807 405.0
44906.0 339.0 0 271.49321266968326 405.0
44927.0 320.0 0 265.3339636658337 405.0
44950.0 322.0 0 259.1747146619842 405.0
44972.0 327.0 0 253.01546565813467 405.0
44995.0 354.0 0 246.85621665428513 406.0
45017.0 555.0 0 240.6969676504356 406.0
45039.0 554.0 0 234.5377186465861 406.0
45061.0 540.0 0 228.37846964273655 406.0
45084.0 471.0 0 222.219220638887 406.0
45106.0 428.0 0 216.05997163503747 406.0
45129.0 403.0 0 209.90072263118796 406.0
45150.0 409.0 0 203.74147362733842 406.0
45173.0 426.0 0 197.58222462348888 407.0
45195.0 390.0 0 191.42297561963937 407.0
45218.0 447.0 500 185.26372661578984 407.0
45240.0 386.0 0 179.1044776119403 407.0
45262.0 336.0 0 214.6132084674666 407.0
45284.0 363.0 0 250.1219393229929 407.0
45307.0 429.0 0 285.63067017851915 407.0
45329.0 429.0 0 321.1394010340455 407.0
45371.0 522.0 500 356.6481318895718 407.0
45394.0 333.0 0 392.15686274509807 406.0
45417.0 326.0 0 377.9533704028876 405.0
45439.0 321.0 0 363.749878060677 405.0
45461.0 323.0 0 349.5463857184665 405.0
45483.0 338.0 0 335.342893376256 404.0
45506.0 340.0 0 321.1394010340455 404.0
45528.0 349.0 0 306.9359086918349 403.0
45551.0 300.0 0 292.73241634962443 403.0
45572.0 333.0 0 278.52892400741393 402.0
45595.0 331.0 0 264.3254316652034 402.0
45617.0 367.0 0 250.1219393229929 401.0
45640.0 318.0 0 235.9184469807824 401.0
45662.0 339.0 0 221.71495463857184 400.0
45685.0 245.0 0 207.51146229636132 400.0
45706.0 347.0 500 193.30796995415082 399.0
45729.0 255.0 0 179.1044776119403 399.0
45751.0 315.0 500 756.2189054726367 398.0
45774.0 262.0 0 1333.3333333333333 398.0
45796.0 327.0 500 1333.3333333333333 397.0
45818.0 186.0 0 1333.3333333333333 397.0
45840.0 186.0 0 1118.7739463601533 397.0
45883.0 501.0 500 904.2145593869732 397.0
45905.0 339.0 0 689.6551724137931 397.0
45927.0 327.0 0 654.3087454417504 397.0
45950.0 329.0 0 618.9623184697077 397.0
45973.0 320.0 0 583.615891497665 397.0
45995.0 295.0 0 548.2694645256222 397.0
46017.0 101.0 0 512.9230375535794 397.0
46039.0 74.0 0 477.5766105815367 397.0
46061.0 95.0 0 442.23018360949396 397.0
46082.0 98.0 0 406.88375663745126 398.0
46103.0 114.0 0 371.53732966540844 398.0
46125.0 176.0 0 336.19090269336573 398.0
46148.0 68.0 0 300.844475721323 398.0
46169.0 56.0 0 265.4980487492803 398.0
46191.0 142.0 500 230.1516217772375 398.0
46212.0 82.0 0 194.80519480519482 398.0
46234.0 82.0 0 442.37012987012986 398.0
46255.0 180.0 500 689.9350649350649 398.0
46278.0 180.0 0 937.5 398.0
46299.0 155.0 0 841.6030534351145 398.0
46322.0 155.0 0 745.706106870229 398.0
46344.0 155.0 0 649.8091603053435 398.0
46386.0 489.0 500 553.912213740458 398.0
46409.0 338.0 0 458.01526717557255 398.0
46431.0 334.0 0 456.30625498461893 398.0
46454.0 331.0 0 454.59724279366526 397.0
46476.0 327.0 0 452.88823060271164 397.0
46498.0 320.0 0 451.17921841175803 397.0
46520.0 393.0 500 449.47020622080436 397.0
46543.0 301.0 0 447.76119402985074 397.0
46565.0 337.0 0 447.20840243228304 397.0
46588.0 374.0 0 446.65561083471533 396.0
46609.0 335.0 0 446.1028192371476 396.0
46632.0 322.0 0 445.55002763957987 396.0
46655.0 454.0 500 444.99723604201216 396.0
46677.0 216.0 0 444.44444444444446 396.0
46700.0 340.0 500 888.8888888888889 396.0
46721.0 459.0 0 1333.3333333333333 395.0
46744.0 368.0 0 1191.5584415584415 395.0
46766.0 346.0 0 1049.7835497835497 395.0
46789.0 269.0 0 908.008658008658 395.0
46811.0 303.0 0 766.2337662337662 395.0
46834.0 303.0 0 624.4588744588744 395.0
46876.0 512.0 500 482.6839826839828 395.0
46898.0 350.0 0 340.90909090909093 396.0
46920.0 337.0 0 330.75035176529576 396.0
46942.0 332.0 0 320.5916126215006 396.0
46965.0 329.0 0 310.43287347770536 397.0
46987.0 304.0 0 300.2741343339102 397.0
47010.0 313.0 0 290.115395190115 397.0
47031.0 315.0 0 279.95665604631984 398.0
47054.0 358.0 0 269.79791690252466 398.0
47076.0 236.0 0 259.6391777587295 399.0
47099.0 260.0 0 249.48043861493426 399.0
47121.0 284.0 0 239.32169947113908 399.0
47144.0 410.0 0 229.1629603273439 400.0
47166.0 271.0 0 219.00422118354874 400.0
47188.0 248.0 0 208.84548203975353 400.0
47211.0 266.0 0 198.68674289595836 401.0
47233.0 291.0 0 188.5280037521632 401.0
47256.0 305.0 0 178.36926460836798 401.0
47277.0 306.0 0 168.2105254645728 402.0
47300.0 363.0 0 158.0517863207776 402.0
47322.0 355.0 0 147.89304717698244 402.0
47345.0 355.0 0 137.73430803318726 403.0
47387.0 532.0 500 127.57556888939206 403.0
47409.0 342.0 0 117.41682974559687 403.0
47432.0 323.0 0 144.6391673681794 404.0
47454.0 325.0 0 171.8615049907619 404.0
47476.0 332.0 0 199.08384261334442 404.0
47498.0 359.0 0 226.30618023592694 405.0
47521.0 367.0 0 253.52851785850947 405.0
47543.0 347.0 0 280.75085548109195 405.0
47566.0 471.0 500 307.9731931036745 405.0
47587.0 475.0 0 335.195530726257 406.0
47610.0 441.0 0 324.2995966009122 406.0
47632.0 406.0 0 313.40366247556733 406.0
47655.0 394.0 0 302.5077283502225 406.0
47678.0 358.0 0 291.61179422487766 407.0
47699.0 380.0 0 280.71586009953285 407.0
47722.0 427.0 0 269.81992597418804 407.0
47744.0 449.0 0 258.9239918488432 408.0
47767.0 457.0 0 248.02805772349836 408.0
47789.0 470.0 0 237.13212359815353 408.0
47811.0 479.0 0 226.2361894728087 408.0
47833.0 479.0 0 215.34025534746388 408.0
47876.0 538.0 500 204.44432122211904 408.0
47898.0 330.0 0 193.5483870967742 408.0
47920.0 327.0 0 196.1459465990093 408.0
47943.0 323.0 0 198.7435061012444 408.0
47965.0 322.0 0 201.34106560347954 408.0
47988.0 343.0 0 203.93862510571464 408.0
48009.0 416.0 0 206.53618460794974 408.0
48032.0 280.0 0 209.13374411018486 408.0
48054.0 268.0 0 211.73130361241996 408.0
48077.0 277.0 0 214.32886311465506 407.0
48099.0 292.0 0 216.92642261689016 407.0
48121.0 286.0 0 219.52398211912526 407.0
48143.0 328.0 500 222.1215416213604 407.0
48166.0 359.0 0 224.7191011235955 407.0
48188.0 347.0 0 226.83735494566218 407.0
48211.0 347.0 0 228.95560876772885 407.0
48233.0 361.0 0 231.07386258979554 407.0
48255.0 355.0 0 233.1921164118622 407.0
48278.0 360.0 0 235.3103702339289 407.0
48300.0 388.0 0 237.42862405599558 407.0
48323.0 391.0 0 239.54687787806225 407.0
48344.0 391.0 0 241.66513170012894 406.0
48387.0 521.0 500 243.7833855221956 405.0
48410.0 344.0 0 245.9016393442623 404.0
48431.0 326.0 0 241.00764722044144 403.0
48454.0 327.0 0 236.11365509662056 402.0
48476.0 333.0 0 231.2196629727997 402.0
48499.0 308.0 0 226.32567084897886 401.0
48521.0 300.0 0 221.43167872515798 400.0
48543.0 314.0 0 216.53768660133713 400.0
48565.0 325.0 0 211.64369447751625 399.0
48588.0 352.0 0 206.7497023536954 398.0
48610.0 352.0 0 201.85571022987455 397.0
48633.0 377.0 0 196.96171810605367 397.0
48654.0 344.0 0 192.06772598223282 396.0
48677.0 359.0 0 187.17373385841194 395.0
48699.0 363.0 0 182.27974173459108 395.0
48722.0 344.0 0 177.38574961077023 394.0
48745.0 384.0 500 172.49175748694938 393.0
48766.0 376.0 0 167.5977653631285 392.0
48789.0 327.0 0 225.68126572561732 392.0
48811.0 321.0 0 283.7647660881061 391.0
48834.0 321.0 0 341.8482664505949 391.0
48876.0 536.0 500 399.93176681308375 392.0
48898.0 349.0 0 458.01526717557255 393.0
48921.0 323.0 0 440.86184851822316 393.0
48943.0 330.0 0 423.70842986087376 394.0
48965.0 332.0 0 406.5550112035244 394.0
48987.0 334.0 0 389.40159254617504 395.0
49010.0 344.0 0 372.2481738888256 396.0
49032.0 339.0 0 355.09475523147626 396.0
49055.0 361.0 0 337.94133657412686 397.0
49076.0 338.0 0 320.7879179167775 398.0
49099.0 321.0 0 303.6344992594281 398.0
49121.0 330.0 0 286.4810806020787 399.0
49144.0 336.0 0 269.3276619447293 399.0
49166.0 355.0 0 252.17424328737994 400.0
49188.0 343.0 0 235.02082463003055 401.0
49210.0 330.0 0 217.86740597268115 401.0
49233.0 350.0 0 200.71398731533174 402.0
49255.0 290.0 0 183.5605686579824 403.0
49278.0 358.0 500 166.407150000633 403.0
49300.0 423.0 0 149.2537313432836 404.0
49322.0 349.0 0 249.55497740654528 404.0
49345.0 349.0 0 349.856223469807 404.0
49387.0 516.0 500 450.1574695330686 403.0
49409.0 350.0 0 550.4587155963303 403.0
49432.0 338.0 0 522.46413193969 402.0
49454.0 336.0 0 494.4695482830496 402.0
49477.0 329.0 0 466.47496462640925 401.0
49498.0 335.0 0 438.48038096976893 401.0
49521.0 364.0 0 410.48579731312856 400.0
49543.0 383.0 0 382.49121365648824 400.0
49566.0 354.0 0 354.49662999984787 399.0
49588.0 394.0 500 326.50204634320755 399.0
49610.0 412.0 0 298.5074626865672 398.0
49632.0 373.0 0 290.99295190713104 398.0
49655.0 363.0 0 283.47844112769485 397.0
49677.0 334.0 0 275.9639303482587 397.0
49700.0 346.0 0 268.4494195688226 396.0
49722.0 521.0 0 260.93490878938644 396.0
49744.0 441.0 0 253.42039800995025 395.0
49766.0 366.0 0 245.9058872305141 395.0
49789.0 378.0 0 238.39137645107797 394.0
49812.0 306.0 0 230.8768656716418 394.0
49834.0 306.0 0 223.36235489220564 394.0
49876.0 534.0 500 215.8478441127695 394.0
49899.0 344.0 0 208.33333333333334 395.0
49920.0 326.0 0 208.22281167108756 395.0
49943.0 327.0 0 208.11229000884174 395.0
49965.0 336.0 0 208.00176834659595 395.0
49988.0 329.0 0 207.89124668435014 396.0
50010.0 316.0 0 207.78072502210435 396.0
50032.0 337.0 0 207.67020335985853 396.0
50054.0 368.0 0 207.55968169761275 397.0
50077.0 311.0 0 207.44916003536693 397.0
50099.0 278.0 0 207.33863837312114 397.0
50122.0 282.0 0 207.22811671087533 398.0
50144.0 281.0 0 207.11759504862954 398.0
50166.0 398.0 500 207.00707338638372 398.0
50188.0 291.0 0 206.89655172413794 399.0
50211.0 264.0 0 214.07395849586518 399.0
50233.0 280.0 0 221.25136526759246 399.0
50256.0 267.0 0 228.4287720393197 400.0
50277.0 291.0 0 235.60617881104696 400.0
50300.0 315.0 0 242.78358558277424 400.0
50323.0 310.0 0 249.96099235450149 400.0
50345.0 310.0 0 257.13839912622876 400.0
50387.0 525.0 500 264.315805897956 400.0
50410.0 342.0 0 271.49321266968326 400.0
50432.0 335.0 0 264.4077923760349 400.0
50455.0 336.0 0 257.32237208238655 400.0
50476.0 332.0 0 250.23695178873817 400.0
50499.0 310.0 0 243.15153149508978 400.0
50521.0 250.0 0 236.0661112014414 400.0
50544.0 248.0 0 228.98069090779305 400.0
50566.0 238.0 0 221.8952706141447 400.0
50588.0 239.0 0 214.8098503204963 400.0
50610.0 271.0 0 207.72443002684793 400.0
50633.0 228.0 0 200.63900973319957 400.0
50655.0 203.0 0 193.5535894395512 400.0
50678.0 217.0 0 186.46816914590283 400.0
50699.0 220.0 0 179.38274885225445 400.0
50722.0 235.0 0 172.2973285586061 400.0
50744.0 257.0 0 165.2119082649577 400.0
50767.0 278.0 0 158.12648797130936 400.0
50789.0 286.0 0 151.04106767766098 400.0
50811.0 290.0 0 143.95564738401262 400.0
50833.0 290.0 0 136.87022709036424 399.0
50876.0 533.0 500 129.78480679671588 398.0
50898.0 348.0 0 122.69938650306749 398.0
50921.0 332.0 0 160.11595766196993 397.0
50943.0 330.0 0 197.5325288208724 397.0
50966.0 336.0 0 234.94909997977481 396.0
50988.0 323.0 0 272.36567113867727 396.0
51010.0 291.0 0 309.7822422975797 395.0
51032.0 404.0 500 347.1988134564822 395.0
51055.0 327.0 0 384.61538461538464 394.0
51077.0 302.0 0 370.2419646081618 394.0
51100.0 288.0 0 355.868544600939 393.0
51121.0 280.0 0 341.4951245937161 393.0
51144.0 286.0 0 327.12170458649337 393.0
51166.0 296.0 0 312.7482845792705 392.0
51189.0 318.0 0 298.37486457204767 392.0
51211.0 346.0 0 284.00144456482485 391.0
51233.0 328.0 0 269.62802455760203 391.0
51255.0 321.0 0 255.2546045503792 390.0
51278.0 345.0 0 240.8811845431564 390.0
51300.0 312.0 0 226.50776453593355 389.0
51323.0 319.0 0 212.1343445287107 389.0
51344.0 319.0 0 197.76092452148788 389.0
51387.0 542.0 500 183.38750451426506 390.0
51410.0 351.0 0 169.01408450704224 390.0
51431.0 327.0 0 166.80862269732916 391.0
51454.0 327.0 0 164.60316088761607 391.0
51477.0 330.0 0 162.39769907790298 392.0
51499.0 314.0 0 160.1922372681899 392.0
51522.0 279.0 0 157.9867754584768 393.0
51543.0 252.0 0 155.78131364876373 393.0
51566.0 271.0 0 153.57585183905064 394.0
51588.0 281.0 0 151.37039002933759 394.0
51611.0 294.0 0 149.1649282196245 395.0
51633.0 304.0 0 146.9594664099114 395.0
51655.0 328.0 0 144.75400460019833 396.0
51677.0 307.0 0 142.54854279048524 396.0
51700.0 300.0 0 140.34308098077216 397.0
51722.0 303.0 0 138.13761917105907 397.0
51745.0 300.0 0 135.932157361346 398.0
51767.0 301.0 0 133.7266955516329 398.0
51789.0 322.0 0 131.52123374191981 399.0
51811.0 302.0 0 129.31577193220673 399.0
51834.0 302.0 0 127.11031012249364 399.0
51876.0 527.0 500 124.90484831278057 399.0
51898.0 349.0 0 122.69938650306749 399.0
51921.0 338.0 0 122.44884620747351 399.0
51943.0 339.0 0 122.19830591187953 399.0
51966.0 325.0 0 121.94776561628555 399.0
51988.0 338.0 0 121.69722532069159 399.0
52010.0 334.0 0 121.44668502509761 399.0
52033.0 331.0 0 121.19614472950363 399.0
52055.0 346.0 0 120.94560443390965 399.0
52078.0 353.0 0 120.69506413831567 399.0
52099.0 364.0 0 120.4445238427217 399.0
52122.0 365.0 0 120.19398354712771 399.0
52144.0 333.0 0 119.94344325153375 399.0
52167.0 330.0 0 119.69290295593977 399.0
52189.0 322.0 0 119.4423626603458 399.0
52211.0 334.0 0 119.19182236475181 399.0
52233.0 344.0 0 118.94128206915784 399.0
52256.0 298.0 0 118.69074177356386 399.0
52278.0 293.0 0 118.44020147796988 399.0
52301.0 275.0 0 118.1896611823759 399.0
52322.0 291.0 0 117.93912088678194 399.0
52345.0 291.0 0 117.68858059118796 398.0
52388.0 526.0 500 117.43804029559398 398.0
52409.0 345.0 0 117.1875 398.0
52432.0 340.0 0 126.14846676029963 398.0
52454.0 332.0 0 135.10943352059925 398.0
52477.0 326.0 0 144.07040028089887 398.0
52500.0 352.0 0 153.0313670411985 398.0
52521.0 384.0 0 161.99233380149812 398.0
52544.0 409.0 0 170.95330056179773 398.0
52566.0 390.0 0 179.91426732209737 398.0
52589.0 397.0 0 188.875234082397 397.0
52611.0 377.0 0 197.83620084269663 397.0
52633.0 355.0 0 206.79716760299624 397.0
52655.0 399.0 500 215.75813436329588 397.0
52678.0 367.0 0 224.7191011235955 397.0
52700.0 326.0 0 229.91622462871635 397.0
52723.0 298.0 0 235.1133481338372 397.0
52744.0 300.0 0 240.3104716389581 397.0
52767.0 433.0 0 245.50759514407895 397.0
52789.0 330.0 0 250.7047186491998 397.0
52812.0 304.0 0 255.90184215432066 397.0
52834.0 304.0 0 261.09896565944155 396.0
52876.0 537.0 500 266.2960891645624 396.0
52899.0 347.0 0 271.49321266968326 396.0
52921.0 332.0 0 264.48974071858845 396.0
52943.0 330.0 0 257.4862687674936 396.0
52965.0 326.0 0 250.48279681639875 396.0
52988.0 323.0 0 243.4793248653039 396.0
53011.0 344.0 0 236.4758529142091 396.0
53033.0 337.0 0 229.47238096311426 396.0
53055.0 319.0 0 222.46890901201942 396.0
53077.0 347.0 0 215.4654370609246 395.0
53100.0 310.0 0 208.46196510982975 395.0
53122.0 284.0 0 201.4584931587349 395.0
53145.0 280.0 0 194.45502120764007 395.0
53166.0 290.0 0 187.45154925654526 395.0
53189.0 455.0 0 180.4480773054504 395.0
53211.0 340.0 0 173.4446053543556 395.0
53234.0 274.0 0 166.44113340326072 395.0
53256.0 283.0 0 159.4376614521659 395.0
53278.0 304.0 0 152.43418950107105 395.0
53300.0 297.0 0 145.43071754997624 395.0
53323.0 317.0 0 138.4272455988814 395.0
53345.0 317.0 0 131.42377364778656 395.0
53387.0 538.0 500 124.42030169669172 395.0
53410.0 350.0 0 117.41682974559687 395.0
53432.0 336.0 0 132.46086105675147 395.0
53455.0 330.0 0 147.50489236790605 395.0
53476.0 332.0 0 162.54892367906066 395.0
53499.0 330.0 0 177.59295499021525 395.0
53521.0 270.0 0 192.63698630136986 395.0
53544.0 248.0 0 207.68101761252444 395.0
53567.0 282.0 0 222.72504892367903 395.0
53588.0 258.0 0 237.76908023483364 395.0
53611.0 363.0 500 252.81311154598825 395.0
53633.0 239.0 0 267.85714285714283 395.0
53656.0 249.0 0 264.0123034859877 395.0
53678.0 250.0 0 260.1674641148325 395.0
53701.0 250.0 0 256.32262474367735 395.0
53722.0 237.0 0 252.4777853725222 395.0
53745.0 259.0 0 248.63294600136703 395.0
53767.0 312.0 0 244.7881066302119 395.0
53790.0 301.0 0 240.94326725905674 395.0
53812.0 284.0 0 237.09842788790158 395.0
53834.0 284.0 0 233.25358851674642 395.0
53877.0 534.0 500 229.40874914559126 395.0
53899.0 349.0 0 225.5639097744361 395.0
53921.0 333.0 0 221.71498303689248 394.0
53943.0 340.0 0 217.86605629934883 394.0
53966.0 340.0 0 214.0171295618052 394.0
53988.0 352.0 0 210.16820282426158 394.0
54011.0 365.0 0 206.31927608671796 393.0
54032.0 521.0 0 202.47034934917434 393.0
54055.0 504.0 0 198.6214226116307 393.0
54078.0 478.0 0 194.77249587408707 392.0
54100.0 468.0 0 190.92356913654345 392.0
54123.0 447.0 0 187.0746423989998 392.0
54144.0 430.0 0 183.22571566145618 392.0
54167.0 428.0 0 179.37678892391256 391.0
54189.0 454.0 0 175.52786218636894 391.0
54212.0 468.0 0 171.67893544882529 391.0
54234.0 480.0 0 167.83000871128166 391.0
54256.0 496.0 0 163.98108197373804 390.0
54278.0 504.0 0 160.13215523619442 390.0
54301.0 519.0 0 156.28322849865077 390.0
54323.0 538.0 0 152.43430176110715 390.0
54346.0 538.0 0 148.58537502356353 389.0
54388.0 530.0 0 144.73644828601988 389.0
54410.0 330.0 0 140.8875215484763 389.0
54433.0 316.0 0 137.03859481093264 389.0
54454.0 319.0 0 133.18966807338902 389.0
54477.0 327.0 0 129.3407413358454 389.0
54499.0 308.0 0 125.49181459830176 389.0
54522.0 285.0 0 121.64288786075812 389.0
54544.0 277.0 0 117.79396112321449 389.0
54566.0 270.0 0 113.94503438567087 389.0
54588.0 295.0 0 110.09610764812723 389.0
54611.0 340.0 0 106.24718091058362 389.0
54634.0 296.0 0 102.39825417303999 389.0
54656.0 309.0 0 98.54932743549635 389.0
54678.0 338.0 0 94.70040069795274 389.0
54700.0 320.0 0 90.8514739604091 389.0
54723.0 333.0 0 87.00254722286547 389.0
54745.0 325.0 0 83.15362048532185 389.0
54768.0 341.0 0 79.3046937477782 389.0
54789.0 333.0 0 75.45576701023458 389.0
54812.0 309.0 0 71.60684027269096 389.0
54834.0 309.0 0 67.75791353514731 389.0
54876.0 539.0 500 63.90898679760369 389.0
54899.0 339.0 0 60.06006006006006 389.0
54921.0 328.0 0 64.32934482470087 389.0
54944.0 327.0 0 68.59862958934167 390.0
54966.0 335.0 0 72.86791435398247 390.0
54988.0 341.0 0 77.13719911862327 390.0
55010.0 372.0 0 81.40648388326407 390.0
55033.0 398.0 0 85.67576864790487 391.0
55055.0 409.0 0 89.94505341254568 391.0
55078.0 433.0 0 94.21433817718648 391.0
55099.0 405.0 0 98.48362294182728 391.0
55122.0 409.0 0 102.75290770646808 391.0
55145.0 432.0 0 107.02219247110888 392.0
55167.0 430.0 0 111.29147723574968 392.0
55190.0 452.0 0 115.5607620003905 392.0
55212.0 430.0 0 119.83004676503128 392.0
55234.0 409.0 0 124.0993315296721 393.0
55256.0 368.0 0 128.3686162943129 393.0
55279.0 356.0 0 132.6379010589537 393.0
55301.0 474.0 500 136.9071858235945 393.0
55324.0 389.0 0 141.1764705882353 393.0
55345.0 389.0 0 324.00270453008795 393.0
55388.0 514.0 500 506.82893847194055 393.0
55411.0 344.0 0 689.6551724137931 393.0
55432.0 332.0 0 655.6184594270029 393.0
55455.0 328.0 0 621.5817464402128 393.0
55477.0 324.0 0 587.5450334534225 393.0
55500.0 293.0 0 553.5083204666323 393.0
55522.0 288.0 0 519.4716074798422 393.0
55544.0 253.0 0 485.43489449305196 393.0
55566.0 256.0 0 451.39818150626184 393.0
55589.0 276.0 0 417.3614685194716 393.0
55611.0 296.0 0 383.3247555326814 393.0
55634.0 264.0 0 349.28804254589124 393.0
55655.0 235.0 0 315.25132955910107 393.0
55678.0 223.0 0 281.21461657231083 393.0
55701.0 222.0 0 247.17790358552065 393.0
55723.0 351.0 500 213.14119059873047 393.0
55746.0 235.0 0 179.1044776119403 393.0
55767.0 239.0 0 214.18879627834852 393.0
55790.0 270.0 0 249.27311494475674 393.0
55812.0 224.0 0 284.357433611165 393.0
55835.0 224.0 0 319.4417522775732 393.0
55877.0 508.0 500 354.5260709439814 393.0
55899.0 337.0 0 389.61038961038963 393.0
55922.0 330.0 0 375.7995735607676 394.0
55944.0 334.0 0 361.9887575111456 394.0
55966.0 334.0 0 348.1779414615236 394.0
55988.0 364.0 0 334.36712541190155 394.0
56011.0 411.0 0 320.55630936227953 395.0
56033.0 432.0 0 306.7454933126575 395.0
56056.0 461.0 0 292.9346772630355 395.0
56077.0 435.0 0 279.1238612134135 396.0
56100.0 378.0 0 265.31304516379146 396.0
56122.0 347.0 0 251.5022291141694 396.0
56145.0 434.0 500 237.6914130645474 396.0
56167.0 470.0 0 223.88059701492537 397.0
56189.0 401.0 0 226.1838953381242 397.0
56212.0 345.0 0 228.487193661323 397.0
56234.0 318.0 0 230.79049198452182 397.0
56257.0 316.0 0 233.09379030772064 398.0
56279.0 343.0 0 235.39708863091948 398.0
56301.0 360.0 0 237.7003869541183 398.0
56323.0 383.0 0 240.00368527731712 398.0
56346.0 383.0 0 242.30698360051593 398.0
56388.0 528.0 500 244.61028192371475 398.0
56410.0 340.0 0 246.91358024691357 397.0
56433.0 326.0 0 240.99861864006377 397.0
56455.0 327.0 0 235.08365703321394 397.0
56478.0 333.0 0 229.16869542636414 396.0
56499.0 324.0 0 223.2537338195143 396.0
56522.0 315.0 0 217.3387722126645 396.0
56544.0 276.0 0 211.42381060581468 395.0
56567.0 283.0 0 205.50884899896488 395.0
56589.0 424.0 0 199.59388739211505 395.0
56611.0 285.0 0 193.67892578526525 395.0
56633.0 278.0 0 187.76396417841545 394.0
56656.0 260.0 0 181.84900257156562 394.0
56678.0 270.0 0 175.9340409647158 394.0
56701.0 297.0 0 170.019079357866 393.0
56724.0 280.0 0 164.1041177510162 393.0
56745.0 319.0 0 158.18915614416636 393.0
56768.0 334.0 0 152.27419453731656 392.0
56790.0 359.0 0 146.35923293046676 392.0
56813.0 319.0 0 140.44427132361693 392.0
56835.0 319.0 0 134.5293097167671 391.0
56877.0 540.0 500 128.6143481099173 391.0
56900.0 340.0 0 122.69938650306749 391.0
56922.0 328.0 0 121.23986728067196 391.0
56944.0 329.0 0 119.78034805827645 391.0
56966.0 325.0 0 118.32082883588092 391.0
56989.0 355.0 0 116.86130961348539 391.0
57011.0 515.0 0 115.40179039108986 391.0
57034.0 463.0 0 113.94227116869433 391.0
57055.0 451.0 0 112.48275194629882 391.0
57078.0 405.0 0 111.02323272390329 390.0
57100.0 368.0 0 109.56371350150776 390.0
57123.0 362.0 0 108.10419427911225 390.0
57145.0 389.0 0 106.64467505671672 390.0
57167.0 388.0 0 105.1851558343212 390.0
57189.0 427.0 0 103.72563661192567 390.0
57212.0 469.0 0 102.26611738953014 390.0
57235.0 454.0 0 100.80659816713462 390.0
57257.0 438.0 0 99.3470789447391 390.0
57279.0 452.0 0 97.88755972234358 390.0
57301.0 455.0 0 96.42804049994805 390.0
57324.0 497.0 0 94.96852127755253 390.0
57346.0 497.0 0 93.509002055157 389.0
57388.0 525.0 0 92.04948283276147 389.0
57411.0 329.0 0 90.58996361036594 388.0
57433.0 332.0 0 89.13044438797043 388.0
57456.0 322.0 0 87.6709251655749 388.0
57477.0 319.0 0 86.21140594317937 388.0
57500.0 315.0 0 84.75188672078386 387.0
57522.0 317.0 0 83.29236749838833 387.0
57545.0 333.0 0 81.8328482759928 387.0
57567.0 348.0 0 80.37332905359727 387.0
57589.0 363.0 0 78.91380983120175 386.0
57611.0 387.0 0 77.45429060880623 386.0
57634.0 373.0 0 75.9947713864107 386.0
57656.0 366.0 0 74.53525216401519 386.0
57679.0 392.0 0 73.07573294161966 385.0
57700.0 375.0 0 71.61621371922413 385.0
57723.0 381.0 0 70.1566944968286 385.0
57745.0 398.0 0 68.69717527443308 384.0
57768.0 423.0 0 67.23765605203755 384.0
57791.0 386.0 0 65.77813682964204 384.0
57812.0 336.0 0 64.31861760724652 384.0
57835.0 336.0 0 62.85909838485099 384.0
57878.0 519.0 500 61.39957916245547 385.0
57899.0 345.0 0 59.94005994005994 386.0
57922.0 326.0 0 64.92260856350632 386.0
57944.0 334.0 0 69.90515718695269 387.0
57967.0 334.0 0 74.88770581039908 387.0
57989.0 322.0 0 79.87025443384546 388.0
58011.0 353.0 0 84.85280305729184 389.0
58033.0 342.0 0 89.83535168073821 389.0
58056.0 359.0 0 94.8179003041846 390.0
58078.0 365.0 0 99.80044892763098 391.0
58101.0 355.0 0 104.78299755107736 391.0
58122.0 352.0 0 109.76554617452373 392.0
58145.0 353.0 0 114.74809479797013 392.0
58167.0 366.0 0 119.73064342141649 393.0
58190.0 332.0 0 124.71319204486288 394.0
58212.0 328.0 0 129.69574066830927 394.0
58235.0 308.0 0 134.67828929175565 395.0
58256.0 280.0 0 139.66083791520202 396.0
58279.0 373.0 500 144.6433865386484 396.0
58302.0 366.0 0 149.62593516209478 397.0
58324.0 300.0 0 248.58308773520747 397.0
58347.0 300.0 0 347.5402403083201 397.0
58389.0 528.0 500 446.4973928814328 397.0
58411.0 340.0 0 545.4545454545455 397.0
58434.0 333.0 0 520.2297702297702 396.0
58455.0 332.0 0 495.00499500499507 396.0
58478.0 337.0 0 469.7802197802198 396.0
58500.0 317.0 0 444.5554445554446 396.0
58523.0 322.0 0 419.33066933066937 396.0
58545.0 285.0 0 394.10589410589415 395.0
58567.0 299.0 0 368.88111888111894 395.0
58589.0 323.0 0 343.65634365634367 395.0
58612.0 300.0 0 318.43156843156845 395.0
58634.0 267.0 0 293.20679320679324 394.0
58657.0 265.0 0 267.982017982018 394.0
58678.0 257.0 0 242.7572427572428 394.0
58701.0 380.0 500 217.53246753246754 394.0
58723.0 263.0 0 192.30769230769232 394.0
58746.0 248.0 0 213.53646353646354 393.0
58768.0 271.0 0 234.76523476523477 393.0
58790.0 256.0 0 255.99400599400602 393.0
58812.0 269.0 0 277.22277722277727 393.0
58835.0 269.0 0 298.4515484515485 393.0
58877.0 534.0 500 319.6803196803197 393.0
58900.0 343.0 0 340.90909090909093 394.0
58922.0 330.0 0 333.7240114145944 394.0
58945.0 330.0 0 326.53893192009787 394.0
58967.0 335.0 0 319.3538524256013 395.0
58989.0 303.0 0 312.1687729311048 395.0
59011.0 265.0 0 304.98369343660823 395.0
59034.0 264.0 0 297.7986139421117 396.0
59056.0 260.0 0 290.61353444761517 396.0
59079.0 236.0 0 283.4284549531186 397.0
59100.0 364.0 500 276.24337545862204 397.0
59123.0 252.0 0 269.05829596412553 397.0
59145.0 239.0 0 263.93780936273214 398.0
59168.0 229.0 0 258.81732276133874 398.0
59190.0 221.0 0 253.69683615994535 398.0
59212.0 250.0 0 248.57634955855198 399.0
59234.0 278.0 0 243.4558629571586 399.0
59257.0 279.0 0 238.3353763557652 399.0
59279.0 304.0 0 233.2148897543718 400.0
59302.0 286.0 0 228.09440315297843 400.0
59324.0 278.0 0 222.97391655158503 400.0
59346.0 278.0 0 217.85342995019164 401.0
59389.0 530.0 500 212.73294334879824 401.0
59411.0 352.0 0 207.61245674740485 401.0
59433.0 338.0 0 203.8705554411029 401.0
59456.0 330.0 0 200.12865413480094 401.0
59478.0 333.0 0 196.386752828499 401.0
59501.0 413.0 0 192.64485152219706 401.0
59522.0 565.0 0 188.9029502158951 401.0
59545.0 515.0 0 185.16104890959315 401.0
59567.0 479.0 0 181.4191476032912 401.0
59590.0 505.0 0 177.67724629698924 401.0
59612.0 473.0 0 173.9353449906873 401.0
59634.0 473.0 0 170.19344368438533 401.0
59656.0 477.0 0 166.4515423780834 401.0
59679.0 514.0 0 162.70964107178145 401.0
59701.0 522.0 0 158.9677397654795 401.0
59724.0 509.0 0 155.22583845917754 401.0
59745.0 536.0 0 151.4839371528756 401.0
59768.0 504.0 0 147.74203584657366 401.0
59790.0 522.0 0 144.0001345402717 401.0
59813.0 510.0 0 140.25823323396975 401.0
59835.0 510.0 0 136.5163319276678 401.0
59877.0 544.0 0 132.77443062136584 401.0
59900.0 336.0 0 129.0325293150639 401.0
59923.0 321.0 0 125.29062800876194 401.0
59944.0 322.0 0 121.54872670246 401.0
59967.0 318.0 0 117.80682539615805 401.0
59989.0 329.0 0 114.0649240898561 401.0
60012.0 345.0 0 110.32302278355415 402.0
60034.0 363.0 0 106.5811214772522 402.0
60056.0 366.0 0 102.83922017095024 402.0
60078.0 393.0 0 99.09731886464829 402.0
60101.0 397.0 0 95.35541755834635 402.0
60123.0 376.0 0 91.61351625204439 402.0
60146.0 401.0 0 87.87161494574245 402.0
60167.0 370.0 0 84.1297136394405 403.0
60190.0 366.0 0 80.38781233313856 403.0
60212.0 409.0 500 76.64591102683659 403.0
60235.0 413.0 0 72.90400972053463 403.0
60257.0 364.0 0 165.46606491928486 403.0
60279.0 357.0 0 258.0281201180351 403.0
60301.0 330.0 0 350.59017531678523 403.0
60324.0 400.0 500 443.1522305155355 403.0
60346.0 400.0 0 535.7142857142857 403.0
60388.0 532.0 500 736.6071428571429 403.0
60411.0 339.0 0 937.5 403.0
60433.0 324.0 0 898.6880466472303 403.0
60456.0 328.0 0 859.8760932944606 403.0
60478.0 330.0 0 821.064139941691 403.0
60500.0 352.0 0 782.2521865889213 402.0
60523.0 367.0 0 743.4402332361516 402.0
60545.0 380.0 0 704.628279883382 402.0
60568.0 365.0 0 665.8163265306123 402.0
60589.0 348.0 0 627.0043731778426 402.0
60612.0 367.0 0 588.1924198250729 402.0
60634.0 412.0 0 549.3804664723032 402.0
60657.0 352.0 0 510.5685131195335 402.0
60679.0 308.0 0 471.75655976676387 401.0
60701.0 333.0 0 432.94460641399417 401.0
60723.0 346.0 0 394.1326530612246 401.0
60746.0 435.0 0 355.32069970845475 401.0
60768.0 330.0 0 316.50874635568516 401.0
60791.0 337.0 0 277.69679300291546 401.0
60812.0 309.0 0 238.88483965014586 401.0
60835.0 309.0 0 200.07288629737604 400.0
60878.0 532.0 500 161.26093294460645 400.0
60899.0 336.0 0 122.44897959183673 400.0
60922.0 329.0 0 130.9714897194833 400.0
60944.0 331.0 0 139.49399984712986 400.0
60967.0 327.0 0 148.01650997477643 400.0
60990.0 308.0 0 156.53902010242297 400.0
61011.0 293.0 0 165.06153023006954 400.0
61034.0 312.0 0 173.5840403577161 400.0
61056.0 293.0 0 182.10655048536267 400.0
61079.0 256.0 0 190.62906061300924 400.0
61101.0 260.0 0 199.1515707406558 400.0
61124.0 248.0 0 207.67408086830238 400.0
61145.0 377.0 500 216.19659099594892 400.0
61168.0 309.0 0 224.7191011235955 400.0
61190.0 268.0 0 226.83735494566218 400.0
61213.0 253.0 0 228.95560876772885 400.0
61235.0 240.0 0 231.07386258979554 400.0
61257.0 247.0 0 233.1921164118622 400.0
61279.0 273.0 0 235.3103702339289 400.0
61302.0 287.0 0 237.42862405599558 400.0
61324.0 315.0 0 239.54687787806225 400.0
61347.0 315.0 0 241.66513170012894 399.0
61389.0 517.0 500 243.7833855221956 399.0
61411.0 347.0 0 245.9016393442623 399.0
61434.0 329.0 0 240.04683840749414 399.0
61455.0 331.0 0 234.192037470726 399.0
61478.0 339.0 0 228.33723653395785 399.0
61500.0 304.0 0 222.4824355971897 398.0
61523.0 204.0 0 216.62763466042153 398.0
61546.0 242.0 0 210.7728337236534 398.0
61567.0 350.0 0 204.91803278688525 398.0
61590.0 244.0 0 199.0632318501171 398.0
61612.0 207.0 0 193.20843091334893 398.0
61635.0 214.0 0 187.3536299765808 398.0
61657.0 243.0 0 181.49882903981265 398.0
61679.0 252.0 0 175.6440281030445 397.0
61701.0 248.0 0 169.78922716627636 397.0
61724.0 283.0 0 163.9344262295082 397.0
61746.0 294.0 0 158.07962529274005 397.0
61769.0 292.0 0 152.22482435597192 397.0
61790.0 305.0 0 146.37002341920373 397.0
61813.0 292.0 0 140.5152224824356 397.0
61835.0 292.0 0 134.66042154566745 396.0
61877.0 520.0 500 128.8056206088993 396.0
61900.0 351.0 0 122.95081967213115 396.0
61922.0 338.0 0 122.68885059612518 396.0
61945.0 337.0 0 122.42688152011922 396.0
61967.0 325.0 0 122.16491244411327 396.0
61989.0 304.0 0 121.9029433681073 396.0
62011.0 292.0 0 121.64097429210133 395.0
62034.0 288.0 0 121.37900521609538 395.0
62057.0 296.0 0 121.11703614008943 395.0
62079.0 294.0 0 120.85506706408346 395.0
62101.0 305.0 0 120.59309798807749 395.0
62123.0 328.0 0 120.33112891207153 395.0
62146.0 348.0 0 120.06915983606558 395.0
62168.0 345.0 0 119.80719076005961 394.0
62191.0 332.0 0 119.54522168405364 394.0
62212.0 345.0 0 119.28325260804769 394.0
62235.0 353.0 0 119.02128353204174 394.0
62257.0 350.0 0 118.75931445603577 394.0
62280.0 351.0 0 118.4973453800298 394.0
62302.0 335.0 0 118.23537630402384 394.0
62325.0 316.0 0 117.97340722801789 394.0
62346.0 316.0 0 117.71143815201192 394.0
62389.0 529.0 500 117.44946907600595 395.0
62411.0 347.0 0 117.1875 395.0
62433.0 331.0 0 117.44997078586036 396.0
62456.0 337.0 0 117.71244157172072 396.0
62478.0 337.0 0 117.97491235758108 397.0
62501.0 323.0 0 118.23738314344142 397.0
62523.0 335.0 0 118.49985392930178 397.0
62545.0 358.0 0 118.76232471516214 398.0
62567.0 347.0 0 119.0247955010225 398.0
62590.0 355.0 0 119.28726628688285 399.0
62613.0 371.0 0 119.54973707274321 399.0
62635.0 355.0 0 119.81220785860357 400.0
62657.0 343.0 0 120.07467864446392 400.0
62679.0 371.0 0 120.33714943032427 401.0
62702.0 353.0 0 120.59962021618463 401.0
62724.0 317.0 0 120.86209100204499 401.0
62747.0 311.0 0 121.12456178790535 402.0
62768.0 332.0 0 121.38703257376571 402.0
62791.0 491.0 0 121.64950335962607 403.0
62813.0 338.0 0 121.91197414548641 403.0
62836.0 338.0 0 122.17444493134677 403.0
62878.0 531.0 500 122.43691571720713 403.0
62900.0 339.0 0 122.69938650306749 403.0
62923.0 332.0 0 206.26761731056212 403.0
62945.0 335.0 0 289.83584811805673 403.0
62967.0 330.0 0 373.4040789255513 403.0
62989.0 380.0 500 456.97230973304596 403.0
63012.0 406.0 0 540.5405405405405 403.0
63034.0 421.0 0 513.6479763345435 403.0
63057.0 458.0 0 486.7554121285464 403.0
63078.0 520.0 0 459.8628479225494 403.0
63101.0 548.0 0 432.9702837165524 403.0
63124.0 486.0 0 406.0777195105553 403.0
63146.0 444.0 0 379.1851553045583 403.0
63169.0 430.0 0 352.2925910985613 403.0
63190.0 540.0 500 325.40002689256426 403.0
63213.0 424.0 0 298.5074626865672 403.0
63235.0 337.0 0 298.88247206180154 403.0
63258.0 309.0 0 299.25748143703595 403.0
63280.0 318.0 0 299.6324908122703 403.0
63302.0 312.0 0 300.00750018750466 403.0
63324.0 317.0 0 300.3825095627391 403.0
63347.0 317.0 0 300.75751893797343 403.0
63389.0 522.0 500 301.13252831320784 403.0
63411.0 342.0 0 301.5075376884422 403.0
63434.0 324.0 0 301.1741960215672 404.0
63456.0 325.0 0 300.84085435469217 404.0
63479.0 334.0 0 300.5075126878172 404.0
63500.0 289.0 0 300.1741710209422 404.0
63523.0 251.0 0 299.8408293540672 404.0
63545.0 215.0 0 299.50748768719217 405.0
63568.0 212.0 0 299.1741460203172 405.0
63590.0 337.0 500 298.8408043534422 405.0
63612.0 239.0 0 298.5074626865672 405.0
63635.0 217.0 0 290.99295190713104 406.0
63657.0 199.0 0 283.47844112769485 406.0
63680.0 205.0 0 275.9639303482587 406.0
63702.0 221.0 0 268.4494195688226 406.0
63724.0 229.0 0 260.93490878938644 406.0
63746.0 262.0 0 253.42039800995025 407.0
63769.0 260.0 0 245.9058872305141 407.0
63791.0 266.0 0 238.39137645107797 407.0
63814.0 251.0 0 230.8768656716418 407.0
63836.0 251.0 0 223.36235489220564 407.0
63878.0 524.0 500 215.8478441127695 407.0
63901.0 334.0 0 208.33333333333334 407.0
63922.0 323.0 0 204.20076498843622 406.0
63945.0 322.0 0 200.06819664353912 406.0
63967.0 331.0 0 195.935628298642 406.0
63990.0 326.0 0 191.80305995374488 406.0
64012.0 138.0 0 187.67049160884778 405.0
64034.0 135.0 0 183.53792326395066 405.0
64056.0 136.0 0 179.40535491905356 405.0
64079.0 125.0 0 175.27278657415644 404.0
64101.0 127.0 0 171.14021822925935 404.0
64124.0 166.0 0 167.00764988436222 404.0
64147.0 198.0 0 162.8750815394651 404.0
64168.0 185.0 0 158.742513194568 403.0
64191.0 187.0 0 154.60994484967088 403.0
64213.0 193.0 0 150.47737650477376 403.0
64236.0 222.0 0 146.34480815987666 403.0
64258.0 221.0 0 142.21223981497954 402.0
64280.0 224.0 0 138.07967147008242 402.0
64302.0 205.0 0 133.94710312518532 402.0
64325.0 226.0 0 129.81453478028823 402.0
64347.0 226.0 0 125.6819664353911 402.0
64389.0 513.0 500 121.54939809049398 403.0
64412.0 344.0 0 117.41682974559687 404.0
64434.0 328.0 0 117.65645592875116 404.0
64457.0 337.0 0 117.89608211190543 405.0
64478.0 324.0 0 118.13570829505971 405.0
64501.0 344.0 0 118.37533447821399 406.0
64523.0 352.0 0 118.61496066136827 406.0
64546.0 369.0 0 118.85458684452254 407.0
64568.0 406.0 0 119.09421302767683 407.0
64590.0 447.0 0 119.3338392108311 408.0
64612.0 437.0 0 119.57346539398539 408.0
64635.0 413.0 0 119.81309157713966 409.0
64657.0 437.0 0 120.05271776029394 409.0
64680.0 514.0 0 120.29234394344822 410.0
64702.0 465.0 0 120.5319701266025 411.0
64724.0 405.0 0 120.77159630975677 411.0
64747.0 339.0 0 121.01122249291106 412.0
64769.0 341.0 0 121.25084867606533 412.0
64792.0 460.0 0 121.49047485921962 413.0
64813.0 358.0 0 121.73010104237389 413.0
64836.0 358.0 0 121.96972722552817 413.0
64879.0 527.0 500 122.20935340868245 413.0
64900.0 339.0 0 122.44897959183673 412.0
64923.0 327.0 0 129.0000162961112 412.0
64945.0 326.0 0 135.55105300038568 411.0
64968.0 330.0 0 142.10208970466016 411.0
64990.0 307.0 0 148.6531264089346 411.0
65012.0 311.0 0 155.2041631132091 410.0
65034.0 333.0 0 161.75519981748357 410.0
65057.0 309.0 0 168.30623652175802 409.0
65079.0 316.0 0 174.8572732260325 409.0
65102.0 371.0 0 181.40830993030696 409.0
65123.0 301.0 0 187.95934663458144 408.0
65146.0 228.0 0 194.5103833388559 408.0
65168.0 271.0 500 201.0614200431304 407.0
65191.0 554.0 0 207.61245674740485 407.0
65214.0 253.0 0 214.57443602772324 407.0
65236.0 270.0 0 221.5364153080416 406.0
65258.0 224.0 0 228.49839458836 406.0
65280.0 246.0 0 235.46037386867837 405.0
65303.0 258.0 0 242.42235314899676 405.0
65325.0 309.0 0 249.38433242931512 405.0
65348.0 309.0 0 256.3463117096335 405.0
65390.0 534.0 500 263.3082909899519 407.0
65412.0 347.0 0 270.27027027027026 408.0
65435.0 327.0 0 299.852090896867 408.0
65456.0 330.0 0 329.43391152346373 409.0
65479.0 334.0 0 359.0157321500605 410.0
65501.0 321.0 0 388.59755277665727 411.0
65524.0 410.0 500 418.179373403254 412.0
65546.0 426.0 0 447.76119402985074 412.0
65568.0 561.0 0 431.34328358208955 413.0
65590.0 557.0 0 414.92537313432837 414.0
65613.0 559.0 0 398.5074626865672 415.0
65635.0 558.0 0 382.08955223880594 416.0
65658.0 545.0 0 365.67164179104475 416.0
65679.0 561.0 0 349.25373134328356 417.0
65702.0 494.0 0 332.8358208955224 418.0
65724.0 556.0 500 316.4179104477612 419.0
65747.0 561.0 0 300.0 420.0
65770.0 557.0 0 391.66666666666663 420.0
65791.0 442.0 0 483.3333333333333 421.0
65814.0 555.0 500 575.0 422.0
65836.0 555.0 0 666.6666666666666 423.0
65878.0 540.0 0 620.1298701298701 424.0
65901.0 333.0 0 573.5930735930735 425.0
65923.0 308.0 0 527.056277056277 426.0
65946.0 310.0 0 480.51948051948057 427.0
65968.0 306.0 0 433.98268398268397 427.0
65990.0 388.0 500 387.4458874458875 428.0
66012.0 555.0 0 340.90909090909093 429.0
66035.0 559.0 0 332.0560253699789 430.0
66057.0 559.0 0 323.2029598308668 430.0
66080.0 555.0 0 314.34989429175477 431.0
66101.0 561.0 0 305.4968287526427 432.0
66124.0 563.0 0 296.6437632135307 433.0
66146.0 556.0 0 287.79069767441865 433.0
66169.0 555.0 0 278.93763213530656 434.0
66191.0 557.0 0 270.0845665961945 435.0
66213.0 561.0 0 261.2315010570825 436.0
66235.0 558.0 0 252.37843551797042 436.0
66258.0 562.0 0 243.52536997885835 437.0
66281.0 561.0 0 234.6723044397463 438.0
66303.0 562.0 0 225.81923890063428 439.0
66325.0 557.0 0 216.9661733615222 439.0
66347.0 557.0 0 208.11310782241017 440.0
66390.0 557.0 0 199.2600422832981 440.0
66412.0 323.0 0 190.40697674418607 440.0
66434.0 299.0 0 181.553911205074 440.0
66457.0 307.0 0 172.70084566596194 441.0
66479.0 305.0 0 163.8477801268499 441.0
66502.0 295.0 0 154.99471458773786 441.0
66523.0 317.0 0 146.1416490486258 441.0
66546.0 306.0 0 137.28858350951376 441.0
66568.0 325.0 0 128.4355179704017 441.0
66591.0 317.0 0 119.58245243128962 442.0
66613.0 289.0 0 110.72938689217759 442.0
66635.0 346.0 500 101.87632135306552 442.0
66657.0 322.0 0 93.02325581395348 442.0
66680.0 314.0 0 182.52671275927088 442.0
66702.0 321.0 0 272.0301697045883 443.0
66725.0 225.0 0 361.53362664990567 443.0
66746.0 379.0 500 451.0370835952231 443.0
66769.0 530.0 0 540.5405405405405 443.0
66791.0 275.0 0 522.6579963422068 443.0
66814.0 276.0 0 504.77545214387317 443.0
66837.0 276.0 0 486.89290794553955 443.0
66879.0 520.0 500 469.0103637472059 442.0
66901.0 325.0 0 451.1278195488722 441.0
66924.0 321.0 0 432.92086719039753 440.0
66945.0 325.0 0 414.71391483192286 439.0
66968.0 317.0 0 396.5069624734482 439.0
66990.0 351.0 0 378.30001011497353 438.0
67013.0 367.0 0 360.09305775649887 437.0
67035.0 473.0 0 341.8861053980242 436.0
67057.0 491.0 0 323.67915303954953 436.0
67079.0 471.0 0 305.47220068107487 435.0
67102.0 552.0 500 287.2652483226002 434.0
67124.0 486.0 0 269.05829596412553 433.0
67147.0 422.0 0 477.8796599959842 433.0
67169.0 559.0 500 686.7010240278428 432.0
67191.0 556.0 0 895.5223880597015 431.0
67213.0 502.0 0 826.1858130163662 430.0
67236.0 442.0 0 756.8492379730308 430.0
67258.0 410.0 0 687.5126629296954 429.0
67281.0 435.0 0 618.17608788636 428.0
67302.0 373.0 0 548.8395128430246 427.0
67325.0 382.0 0 479.50293779968933 427.0
67348.0 382.0 0 410.1663627563539 426.0
67390.0 541.0 500 340.8297877130186 426.0
67412.0 327.0 0 271.49321266968326 426.0
67435.0 316.0 0 279.456002426755 426.0
67457.0 315.0 0 287.41879218382667 426.0
67480.0 312.0 0 295.3815819408984 426.0
67501.0 319.0 0 303.34437169797013 426.0
67524.0 308.0 0 311.30716145504186 426.0
67546.0 297.0 0 319.2699512121136 426.0
67569.0 491.0 500 327.2327409691853 426.0
67591.0 312.0 0 335.195530726257 426.0
67613.0 280.0 0 324.2995966009122 426.0
67635.0 281.0 0 313.40366247556733 426.0
67658.0 269.0 0 302.5077283502225 426.0
67680.0 295.0 0 291.61179422487766 426.0
67703.0 299.0 0 280.71586009953285 426.0
67724.0 325.0 0 269.81992597418804 426.0
67747.0 339.0 0 258.9239918488432 426.0
67769.0 356.0 0 248.02805772349836 426.0
67792.0 310.0 0 237.13212359815353 426.0
67814.0 319.0 0 226.2361894728087 426.0
67836.0 319.0 0 215.34025534746388 425.0
67879.0 534.0 500 204.44432122211904 425.0
67902.0 346.0 0 193.5483870967742 425.0
67923.0 320.0 0 190.08786176262979 425.0
67946.0 324.0 0 186.62733642848536 424.0
67968.0 321.0 0 183.16681109434094 424.0
67991.0 292.0 0 179.70628576019652 424.0
68013.0 245.0 0 176.24576042605207 424.0
68035.0 267.0 0 172.78523509190765 423.0
68057.0 264.0 0 169.32470975776323 423.0
68080.0 227.0 0 165.8641844236188 423.0
68102.0 252.0 0 162.4036590894744 423.0
68125.0 286.0 0 158.94313375532997 423.0
68146.0 300.0 0 155.48260842118555 422.0
68169.0 298.0 0 152.02208308704112 422.0
68191.0 299.0 0 148.5615577528967 422.0
68214.0 295.0 0 145.10103241875225 422.0
68236.0 318.0 0 141.64050708460786 421.0
68259.0 321.0 0 138.1799817504634 421.0
68280.0 323.0 0 134.719456416319 421.0
68303.0 296.0 0 131.25893108217457 421.0
68325.0 275.0 0 127.79840574803015 421.0
68348.0 275.0 0 124.33788041388573 421.0
68390.0 511.0 500 120.87735507974129 421.0
68412.0 340.0 0 117.41682974559687 421.0
68435.0 327.0 0 119.18554650102391 421.0
68457.0 336.0 0 120.95426325645096 421.0
68479.0 337.0 0 122.722980011878 421.0
68502.0 342.0 0 124.49169676730503 422.0
68524.0 348.0 0 126.26041352273207 422.0
68547.0 381.0 0 128.0291302781591 422.0
68568.0 380.0 0 129.79784703358615 422.0
68591.0 373.0 0 131.5665637890132 422.0
68613.0 382.0 0 133.33528054444022 422.0
68636.0 380.0 0 135.10399729986727 422.0
68658.0 371.0 0 136.87271405529432 422.0
68681.0 397.0 0 138.64143081072135 423.0
68702.0 394.0 0 140.4101475661484 423.0
68725.0 352.0 0 142.17886432157542 423.0
68747.0 325.0 0 143.94758107700247 423.0
68770.0 323.0 0 145.71629783242952 423.0
68792.0 451.0 500 147.48501458785654 423.0
68814.0 449.0 0 149.2537313432836 423.0
68836.0 449.0 0 329.3875450334534 423.0
68879.0 527.0 500 509.5213587236233 422.0
68901.0 338.0 0 689.6551724137931 422.0
68923.0 326.0 0 662.6572778466157 421.0
68946.0 327.0 0 635.6593832794383 421.0
68969.0 331.0 0 608.661488712261 420.0
68991.0 327.0 0 581.6635941450835 420.0
69013.0 330.0 0 554.665699577906 419.0
69035.0 310.0 0 527.6678050107287 418.0
69058.0 301.0 0 500.66991044355126 418.0
69080.0 316.0 0 473.67201587637385 417.0
69103.0 338.0 0 446.67412130919644 417.0
69124.0 294.0 0 419.676226742019 416.0
69147.0 249.0 0 392.67833217484156 416.0
69169.0 255.0 0 365.6804376076642 415.0
69192.0 290.0 0 338.68254304048673 415.0
69214.0 372.0 0 311.6846484733094 414.0
69236.0 253.0 0 284.6867539061319 414.0
69258.0 260.0 0 257.68885933895456 413.0
69281.0 255.0 0 230.6909647717771 413.0
69303.0 253.0 0 203.69307020459974 412.0
69326.0 253.0 0 176.69517563742227 412.0
69368.0 526.0 500 149.6972810702449 412.0
69390.0 335.0 0 122.69938650306749 413.0
69413.0 332.0 0 122.45927028681882 413.0
69434.0 325.0 0 122.21915407057016 414.0
69457.0 328.0 0 121.97903785432149 414.0
69479.0 321.0 0 121.73892163807282 415.0
69502.0 354.0 0 121.49880542182416 415.0
69525.0 355.0 0 121.25868920557551 416.0
69546.0 311.0 0 121.01857298932684 416.0
69569.0 295.0 0 120.77845677307818 417.0
69591.0 299.0 0 120.53834055682951 417.0
69614.0 360.0 0 120.29822434058084 418.0
69636.0 299.0 0 120.05810812433218 418.0
69658.0 279.0 0 119.81799190808351 419.0
69680.0 277.0 0 119.57787569183485 419.0
69703.0 268.0 0 119.33775947558618 420.0
69725.0 279.0 0 119.09764325933752 420.0
69748.0 277.0 0 118.85752704308885 421.0
69769.0 316.0 0 118.6174108268402 421.0
69792.0 320.0 0 118.37729461059153 422.0
69814.0 334.0 0 118.13717839434287 422.0
69837.0 334.0 0 117.8970621780942 423.0
69879.0 532.0 500 117.65694596184554 423.0
69901.0 337.0 0 117.41682974559687 423.0
69924.0 329.0 0 117.41682974559687 424.0
69946.0 335.0 0 117.41682974559687 424.0
69968.0 331.0 0 117.41682974559687 424.0
69990.0 326.0 0 117.41682974559687 424.0
70013.0 356.0 0 117.41682974559687 425.0
70036.0 516.0 0 117.41682974559687 425.0
70058.0 393.0 0 117.41682974559687 425.0
70080.0 336.0 0 117.41682974559687 426.0
70102.0 320.0 0 117.41682974559687 426.0
70125.0 318.0 0 117.41682974559687 426.0
70147.0 321.0 0 117.41682974559687 426.0
70170.0 338.0 0 117.41682974559687 427.0
70191.0 361.0 0 117.41682974559687 427.0
