Time	ECG	ECG_Normalized	Heart_Rate	EDA
0.0 348.0 500 0.0 548.0
23.0 362.0 0 0.0 548.0
44.0 403.0 0 3.3921302578018997 549.0
67.0 484.0 0 6.784260515603799 549.0
89.0 522.0 0 10.176390773405698 549.0
112.0 521.0 0 13.568521031207599 549.0
1815.0 337.0 0 16.960651289009498 549.0
1836.0 325.0 0 20.352781546811396 549.0
1859.0 333.0 0 23.7449118046133 549.0
1884.0 330.0 0 27.137042062415198 549.0
1906.0 346.0 0 30.5291723202171 549.0
1928.0 299.0 0 33.921302578018995 549.0
1950.0 266.0 0 37.3134328358209 549.0
1973.0 254.0 0 40.70556309362279 549.0
1995.0 245.0 0 44.0976933514247 548.0
2018.0 242.0 0 47.4898236092266 548.0
2040.0 234.0 0 50.88195386702849 548.0
2062.0 237.0 0 54.274084124830395 548.0
2084.0 244.0 0 57.6662143826323 548.0
2107.0 221.0 0 61.0583446404342 548.0
2129.0 228.0 0 64.4504748982361 548.0
2152.0 218.0 0 67.84260515603799 548.0
2173.0 218.0 0 71.2347354138399 548.0
2196.0 219.0 0 74.6268656716418 548.0
2218.0 240.0 0 78.01899592944369 548.0
2241.0 240.0 0 81.41112618724559 548.0
2283.0 522.0 500 84.8032564450475 548.0
2305.0 348.0 0 88.1953867028494 549.0
2328.0 334.0 0 91.5875169606513 549.0
2350.0 327.0 0 94.9796472184532 549.0
2373.0 332.0 0 98.37177747625509 550.0
2395.0 335.0 0 101.76390773405699 550.0
2417.0 308.0 0 105.1560379918589 550.0
2440.0 290.0 0 108.54816824966079 551.0
2462.0 291.0 0 111.9402985074627 551.0
2485.0 298.0 0 115.3324287652646 551.0
2507.0 298.0 0 118.72455902306649 552.0
2529.0 325.0 0 122.1166892808684 552.0
2551.0 350.0 0 125.5088195386703 553.0
2574.0 348.0 0 128.9009497964722 553.0
2596.0 298.0 0 132.2930800542741 553.0
2619.0 240.0 0 135.68521031207598 554.0
2640.0 227.0 0 139.0773405698779 554.0
2663.0 219.0 0 142.4694708276798 554.0
2685.0 279.0 500 145.86160108548168 555.0
2708.0 320.0 0 149.2537313432836 555.0
2730.0 336.0 0 248.30393487109907 555.0
2753.0 336.0 0 347.35413839891453 555.0
2795.0 522.0 500 446.40434192673 555.0
2817.0 348.0 0 545.4545454545455 555.0
2840.0 330.0 0 525.323347409237 555.0
2861.0 343.0 0 505.19214936392854 555.0
2884.0 340.0 0 485.0609513186201 555.0
2907.0 320.0 0 464.9297532733116 555.0
2929.0 298.0 0 444.7985552280031 555.0
2952.0 293.0 0 424.6673571826947 555.0
2973.0 255.0 0 404.53615913738616 555.0
2996.0 249.0 0 384.40496109207766 554.0
3018.0 244.0 0 364.2737630467692 554.0
3041.0 212.0 0 344.14256500146075 554.0
3063.0 177.0 0 324.01136695615224 554.0
3086.0 181.0 0 303.8801689108438 554.0
3107.0 184.0 0 283.7489708655353 554.0
3130.0 201.0 0 263.61777282022683 554.0
3152.0 228.0 0 243.48657477491832 554.0
3175.0 272.0 0 223.35537672960987 554.0
3197.0 289.0 0 203.22417868430142 554.0
3219.0 292.0 0 183.09298063899297 554.0
3241.0 292.0 0 162.96178259368446 553.0
3284.0 509.0 500 142.830584548376 553.0
3306.0 348.0 0 122.69938650306749 553.0
3328.0 333.0 0 125.5055351818213 553.0
3351.0 332.0 0 128.3116838605751 553.0
3373.0 329.0 0 131.11783253932893 553.0
3396.0 325.0 0 133.92398121808273 553.0
3419.0 297.0 0 136.73012989683656 553.0
3440.0 299.0 0 139.53627857559036 553.0
3463.0 273.0 0 142.3424272543442 553.0
3485.0 274.0 0 145.148575933098 553.0
3508.0 304.0 0 147.95472461185182 553.0
3530.0 314.0 0 150.76087329060562 553.0
3552.0 296.0 0 153.56702196935944 553.0
3574.0 289.0 0 156.37317064811324 553.0
3597.0 273.0 0 159.17931932686707 553.0
3619.0 255.0 0 161.98546800562087 553.0
3642.0 331.0 500 164.79161668437467 553.0
3663.0 327.0 0 167.5977653631285 553.0
3686.0 269.0 0 205.02428159345675 553.0
3708.0 270.0 0 242.45079782378502 553.0
3731.0 301.0 0 279.8773140541133 553.0
3753.0 301.0 0 317.3038302844416 553.0
3795.0 517.0 500 354.73034651476985 553.0
3818.0 339.0 0 392.15686274509807 553.0
3840.0 328.0 0 387.21013967141215 553.0
3862.0 325.0 0 382.26341659772623 553.0
3884.0 330.0 0 377.3166935240403 554.0
3907.0 333.0 0 372.3699704503544 554.0
3929.0 331.0 0 367.4232473766685 554.0
3952.0 321.0 0 362.47652430298257 554.0
3974.0 326.0 0 357.52980122929665 554.0
3996.0 333.0 0 352.58307815561074 555.0
4019.0 329.0 0 347.6363550819248 555.0
4041.0 339.0 0 342.6896320082389 555.0
4064.0 352.0 0 337.742908934553 555.0
4085.0 378.0 0 332.79618586086707 555.0
4108.0 405.0 0 327.84946278718115 555.0
4130.0 492.0 0 322.90273971349524 556.0
4153.0 555.0 0 317.9560166398093 556.0
4175.0 560.0 0 313.0092935661234 556.0
4197.0 562.0 0 308.0625704924375 556.0
4219.0 558.0 0 303.11584741875157 556.0
4242.0 558.0 0 298.16912434506565 557.0
4284.0 537.0 0 293.22240127137974 557.0
4306.0 339.0 0 288.2756781976938 557.0
4329.0 320.0 0 283.3289551240079 558.0
4351.0 329.0 0 278.382232050322 558.0
4374.0 330.0 0 273.4355089766361 558.0
4395.0 334.0 0 268.48878590295016 559.0
4418.0 375.0 0 263.54206282926424 559.0
4440.0 449.0 0 258.5953397555783 559.0
4463.0 555.0 0 253.6486166818924 560.0
4486.0 560.0 0 248.7018936082065 560.0
4507.0 552.0 0 243.75517053452057 560.0
4530.0 556.0 0 238.80844746083466 561.0
4552.0 560.0 0 233.86172438714874 561.0
4575.0 560.0 0 228.91500131346282 561.0
4597.0 558.0 0 223.9682782397769 562.0
4619.0 554.0 0 219.021555166091 562.0
4641.0 559.0 0 214.07483209240507 562.0
4664.0 561.0 0 209.1281090187192 562.0
4686.0 560.0 0 204.18138594503324 563.0
4709.0 560.0 0 199.23466287134733 563.0
4730.0 561.0 0 194.2879397976614 563.0
4753.0 561.0 0 189.3412167239755 564.0
4796.0 555.0 0 184.39449365028958 564.0
4817.0 319.0 0 179.44777057660366 564.0
4840.0 311.0 0 174.50104750291771 564.0
4862.0 302.0 0 169.55432442923183 564.0
4885.0 315.0 0 164.60760135554594 564.0
4907.0 298.0 0 159.66087828186 564.0
4929.0 306.0 0 154.71415520817408 564.0
4951.0 302.0 0 149.76743213448816 564.0
4974.0 317.0 0 144.82070906080224 564.0
4996.0 347.0 0 139.87398598711633 564.0
5019.0 389.0 0 134.9272629134304 564.0
5041.0 466.0 0 129.9805398397445 564.0
5063.0 559.0 0 125.03381676605858 564.0
5086.0 561.0 0 120.08709369237266 564.0
5108.0 559.0 0 115.14037061868675 564.0
5131.0 553.0 0 110.19364754500083 564.0
5152.0 557.0 0 105.24692447131491 564.0
5175.0 559.0 0 100.300201397629 564.0
5197.0 562.0 0 95.35347832394308 564.0
5220.0 559.0 0 90.40675525025716 564.0
5242.0 559.0 0 85.46003217657125 564.0
5284.0 526.0 0 80.51330910288533 564.0
5307.0 320.0 0 75.56658602919941 564.0
5329.0 308.0 0 70.6198629555135 564.0
5351.0 307.0 0 65.67313988182758 564.0
5373.0 311.0 0 60.726416808141664 564.0
5396.0 297.0 0 55.77969373445575 564.0
5418.0 287.0 0 50.83297066076983 563.0
5441.0 263.0 0 45.886247587083915 563.0
5462.0 391.0 500 40.939524513398 563.0
5485.0 379.0 0 35.99280143971206 563.0
5507.0 344.0 0 46.29189992117407 563.0
5530.0 304.0 0 56.590998402636075 563.0
5553.0 308.0 0 66.89009688409809 563.0
5574.0 318.0 0 77.1891953655601 562.0
5597.0 322.0 0 87.4882938470221 562.0
5619.0 344.0 0 97.78739232848412 562.0
5642.0 362.0 0 108.08649080994613 562.0
5664.0 406.0 0 118.38558929140814 562.0
5686.0 447.0 0 128.68468777287015 562.0
5708.0 458.0 0 138.98378625433216 562.0
5731.0 379.0 0 149.28288473579414 562.0
5753.0 379.0 0 159.58198321725615 562.0
5795.0 491.0 500 169.88108169871816 562.0
5818.0 336.0 0 180.18018018018017 563.0
5840.0 323.0 0 181.0025452197976 563.0
5863.0 322.0 0 181.82491025941505 563.0
5884.0 320.0 0 182.6472752990325 564.0
5907.0 307.0 0 183.46964033864992 564.0
5929.0 273.0 0 184.29200537826736 564.0
5952.0 274.0 0 185.1143704178848 564.0
5974.0 296.0 0 185.9367354575022 565.0
5996.0 301.0 0 186.75910049711965 565.0
6018.0 274.0 0 187.58146553673708 565.0
6041.0 257.0 0 188.40383057635452 566.0
6064.0 268.0 0 189.22619561597196 566.0
6086.0 246.0 0 190.0485606555894 566.0
6108.0 327.0 500 190.87092569520684 567.0
6130.0 324.0 0 191.69329073482427 567.0
6153.0 272.0 0 212.73468503662903 567.0
6175.0 252.0 0 233.7760793384338 568.0
6198.0 239.0 0 254.81747364023855 568.0
6219.0 243.0 0 275.85886794204333 568.0
6242.0 243.0 0 296.9002622438481 568.0
6285.0 489.0 500 317.94165654565285 568.0
6306.0 337.0 0 338.9830508474576 567.0
6329.0 334.0 0 328.9118589791912 567.0
6351.0 334.0 0 318.8406671109248 566.0
6374.0 330.0 0 308.7694752426584 566.0
6396.0 306.0 0 298.698283374392 565.0
6418.0 275.0 0 288.6270915061256 565.0
6440.0 281.0 0 278.5558996378592 564.0
6463.0 272.0 0 268.48470776959283 564.0
6485.0 252.0 0 258.41351590132643 564.0
6508.0 252.0 0 248.34232403306004 563.0
6529.0 260.0 0 238.27113216479364 563.0
6552.0 263.0 0 228.19994029652725 562.0
6574.0 264.0 0 218.12874842826085 562.0
6597.0 273.0 0 208.05755655999445 561.0
6620.0 276.0 0 197.98636469172806 561.0
6641.0 314.0 0 187.91517282346166 560.0
6664.0 292.0 0 177.84398095519526 560.0
6686.0 246.0 0 167.77278908692887 560.0
6709.0 252.0 0 157.70159721866247 559.0
6731.0 229.0 0 147.63040535039607 559.0
6754.0 229.0 0 137.55921348212968 559.0
6796.0 505.0 500 127.48802161386328 559.0
6818.0 345.0 0 117.41682974559687 559.0
6840.0 329.0 0 117.68035307543184 560.0
6862.0 337.0 0 117.9438764052668 560.0
6885.0 336.0 0 118.20739973510177 560.0
6907.0 337.0 0 118.47092306493673 560.0
6930.0 357.0 0 118.7344463947717 560.0
6951.0 388.0 0 118.99796972460666 561.0
6974.0 435.0 0 119.26149305444163 561.0
6996.0 414.0 0 119.5250163842766 561.0
7019.0 340.0 0 119.78853971411156 561.0
7041.0 309.0 0 120.05206304394653 562.0
7063.0 298.0 0 120.31558637378149 562.0
7085.0 283.0 0 120.57910970361645 562.0
7108.0 285.0 0 120.84263303345142 562.0
7131.0 285.0 0 121.10615636328639 562.0
7153.0 276.0 0 121.36967969312136 563.0
7175.0 272.0 0 121.63320302295632 563.0
7197.0 268.0 0 121.89672635279129 563.0
7220.0 261.0 0 122.16024968262624 563.0
7242.0 261.0 0 122.42377301246121 563.0
7284.0 499.0 500 122.68729634229618 563.0
7307.0 342.0 0 122.95081967213115 563.0
7329.0 325.0 0 122.69927467547049 563.0
7352.0 333.0 0 122.44772967880985 563.0
7373.0 330.0 0 122.1961846821492 562.0
7396.0 362.0 0 121.94463968548855 562.0
7418.0 318.0 0 121.6930946888279 562.0
7441.0 307.0 0 121.44154969216726 562.0
7463.0 246.0 0 121.1900046955066 562.0
7485.0 256.0 0 120.93845969884596 562.0
7507.0 257.0 0 120.6869147021853 561.0
7530.0 260.0 0 120.43536970552466 561.0
7552.0 254.0 0 120.18382470886401 561.0
7575.0 285.0 0 119.93227971220335 561.0
7596.0 307.0 0 119.68073471554271 561.0
7619.0 314.0 0 119.42918971888206 560.0
7641.0 277.0 0 119.17764472222142 560.0
7664.0 239.0 0 118.92609972556076 560.0
7687.0 225.0 0 118.67455472890012 560.0
7708.0 211.0 0 118.42300973223946 560.0
7731.0 205.0 0 118.17146473557882 560.0
7753.0 205.0 0 117.91991973891817 559.0
7795.0 505.0 500 117.66837474225753 559.0
7818.0 340.0 0 117.41682974559687 559.0
7840.0 329.0 0 126.28881035137425 559.0
7863.0 336.0 0 135.16079095715162 559.0
7885.0 335.0 0 144.03277156292899 559.0
7907.0 355.0 0 152.90475216870635 559.0
7929.0 383.0 0 161.77673277448375 559.0
7952.0 394.0 0 170.6487133802611 559.0
7974.0 355.0 0 179.5206939860385 559.0
7997.0 320.0 0 188.39267459181588 559.0
8018.0 302.0 0 197.26465519759324 559.0
8041.0 297.0 0 206.1366358033706 559.0
8063.0 380.0 500 215.00861640914798 559.0
8086.0 379.0 0 223.88059701492537 559.0
8108.0 322.0 0 229.03500515440814 559.0
8130.0 284.0 0 234.1894132938909 559.0
8152.0 270.0 0 239.34382143337368 559.0
8175.0 261.0 0 244.49822957285642 559.0
8198.0 265.0 0 249.65263771233919 559.0
8220.0 268.0 0 254.80704585182195 559.0
8243.0 268.0 0 259.9614539913047 559.0
8285.0 515.0 500 265.1158621307875 560.0
8307.0 347.0 0 270.27027027027026 560.0
8330.0 335.0 0 263.32238661005783 561.0
8351.0 329.0 0 256.3745029498454 561.0
8374.0 324.0 0 249.42661928963298 562.0
8396.0 317.0 0 242.47873562942056 562.0
8419.0 297.0 0 235.53085196920813 563.0
8441.0 296.0 0 228.5829683089957 563.0
8463.0 298.0 0 221.63508464878328 564.0
8485.0 280.0 0 214.68720098857085 564.0
8508.0 258.0 0 207.73931732835842 565.0
8530.0 252.0 0 200.791433668146 565.0
8553.0 271.0 0 193.84355000793357 566.0
8574.0 310.0 0 186.89566634772115 567.0
8597.0 312.0 0 179.94778268750872 567.0
8619.0 288.0 0 172.9998990272963 568.0
8642.0 268.0 0 166.05201536708387 568.0
8664.0 263.0 0 159.10413170687144 569.0
8686.0 275.0 0 152.15624804665902 569.0
8708.0 309.0 0 145.2083643864466 570.0
8731.0 315.0 0 138.26048072623416 570.0
8754.0 315.0 0 131.31259706602174 570.0
8796.0 514.0 500 124.36471340580931 570.0
8818.0 349.0 0 117.41682974559687 570.0
8841.0 337.0 0 117.6683800673812 570.0
8863.0 337.0 0 117.9199303891655 570.0
8885.0 325.0 0 118.17148071094982 569.0
8907.0 322.0 0 118.42303103273413 569.0
8930.0 304.0 0 118.67458135451845 569.0
8952.0 269.0 0 118.92613167630276 569.0
8975.0 234.0 0 119.17768199808708 569.0
8996.0 222.0 0 119.42923231987139 568.0
9019.0 236.0 0 119.68078264165571 568.0
9041.0 231.0 0 119.93233296344002 568.0
9064.0 237.0 0 120.18388328522434 568.0
9086.0 259.0 0 120.43543360700865 568.0
9108.0 267.0 0 120.68698392879297 568.0
9130.0 261.0 0 120.93853425057728 567.0
9153.0 272.0 0 121.1900845723616 567.0
9175.0 292.0 0 121.4416348941459 567.0
9198.0 298.0 0 121.69318521593023 567.0
9219.0 310.0 0 121.94473553771454 567.0
9242.0 310.0 0 122.19628585949886 567.0
9285.0 513.0 500 122.44783618128317 567.0
9307.0 339.0 0 122.69938650306749 567.0
9329.0 335.0 0 122.45927028681882 568.0
9352.0 341.0 0 122.21915407057016 568.0
9374.0 338.0 0 121.97903785432149 568.0
9397.0 345.0 0 121.73892163807282 569.0
9418.0 335.0 0 121.49880542182416 569.0
9441.0 323.0 0 121.25868920557551 569.0
9463.0 340.0 0 121.01857298932684 570.0
9486.0 352.0 0 120.77845677307818 570.0
9508.0 369.0 0 120.53834055682951 570.0
9530.0 416.0 0 120.29822434058084 571.0
9552.0 506.0 0 120.05810812433218 571.0
9575.0 554.0 0 119.81799190808351 571.0
9597.0 557.0 0 119.57787569183485 572.0
9620.0 555.0 0 119.33775947558618 572.0
9641.0 551.0 0 119.09764325933752 572.0
9664.0 514.0 0 118.85752704308885 572.0
9686.0 457.0 0 118.6174108268402 573.0
9709.0 388.0 0 118.37729461059153 573.0
9731.0 321.0 0 118.13717839434287 573.0
9753.0 321.0 0 117.8970621780942 573.0
9796.0 509.0 500 117.65694596184554 573.0
9819.0 335.0 0 117.41682974559687 573.0
9840.0 328.0 0 137.53801118348247 572.0
9863.0 325.0 0 157.65919262136805 572.0
9885.0 314.0 0 177.78037405925363 572.0
9908.0 321.0 0 197.9015554971392 571.0
9930.0 309.0 0 218.02273693502482 571.0
9952.0 304.0 0 238.14391837291038 571.0
9974.0 283.0 0 258.265099810796 571.0
9997.0 355.0 500 278.38628124868154 570.0
10019.0 374.0 0 298.5074626865672 570.0
10042.0 346.0 0 291.05344358347634 570.0
10063.0 270.0 0 283.59942448038555 570.0
10086.0 256.0 0 276.1454053772947 569.0
10108.0 260.0 0 268.6913862742039 569.0
10131.0 256.0 0 261.2373671711131 569.0
10153.0 269.0 0 253.78334806802226 569.0
10175.0 294.0 0 246.32932896493145 568.0
10197.0 340.0 0 238.87530986184063 568.0
10220.0 346.0 0 231.42129075874982 568.0
10242.0 346.0 0 223.96727165565898 567.0
10284.0 521.0 500 216.5132525525682 567.0
10307.0 343.0 0 209.05923344947735 567.0
10329.0 328.0 0 204.8936696447555 567.0
10352.0 327.0 0 200.72810584003366 567.0
10374.0 323.0 0 196.56254203531182 567.0
10396.0 321.0 0 192.39697823058998 567.0
10419.0 314.0 0 188.23141442586814 567.0
10441.0 295.0 0 184.0658506211463 567.0
10464.0 302.0 0 179.90028681642445 567.0
10485.0 298.0 0 175.7347230117026 567.0
10508.0 311.0 0 171.56915920698077 566.0
10530.0 342.0 0 167.40359540225896 566.0
10553.0 329.0 0 163.23803159753712 566.0
10575.0 303.0 0 159.07246779281527 566.0
10597.0 302.0 0 154.90690398809343 566.0
10619.0 283.0 0 150.7413401833716 566.0
10642.0 313.0 0 146.57577637864975 566.0
10664.0 294.0 0 142.4102125739279 566.0
10687.0 280.0 0 138.24464876920607 566.0
10708.0 261.0 0 134.07908496448422 566.0
10731.0 268.0 0 129.9135211597624 566.0
10753.0 268.0 0 125.74795735504055 566.0
10795.0 500.0 500 121.58239355031871 566.0
10818.0 337.0 0 117.41682974559687 566.0
10840.0 333.0 0 117.65645592875116 567.0
10863.0 328.0 0 117.89608211190543 567.0
10886.0 327.0 0 118.13570829505971 567.0
10907.0 322.0 0 118.37533447821399 567.0
10930.0 304.0 0 118.61496066136827 567.0
10952.0 296.0 0 118.85458684452254 568.0
10975.0 286.0 0 119.09421302767683 568.0
10997.0 290.0 0 119.3338392108311 568.0
11019.0 286.0 0 119.57346539398539 568.0
11041.0 281.0 0 119.81309157713966 569.0
11064.0 293.0 0 120.05271776029394 569.0
11086.0 299.0 0 120.29234394344822 569.0
11109.0 305.0 0 120.5319701266025 569.0
11130.0 310.0 0 120.77159630975677 569.0
11153.0 344.0 0 121.01122249291106 570.0
11175.0 317.0 0 121.25084867606533 570.0
11198.0 268.0 0 121.49047485921962 570.0
11220.0 259.0 0 121.73010104237389 570.0
11242.0 259.0 0 121.96972722552817 571.0
11285.0 515.0 500 122.20935340868245 571.0
11307.0 340.0 0 122.44897959183673 571.0
11329.0 324.0 0 122.22024550791674 571.0
11351.0 324.0 0 121.99151142399674 571.0
11374.0 334.0 0 121.76277734007675 571.0
11396.0 350.0 0 121.53404325615676 571.0
11419.0 373.0 0 121.30530917223676 571.0
11441.0 399.0 0 121.07657508831677 571.0
11463.0 461.0 0 120.84784100439677 571.0
11486.0 511.0 0 120.61910692047678 571.0
11508.0 507.0 0 120.39037283655679 571.0
11531.0 401.0 0 120.16163875263679 571.0
11552.0 295.0 0 119.9329046687168 571.0
11575.0 276.0 0 119.70417058479681 571.0
11597.0 291.0 0 119.47543650087681 571.0
11620.0 282.0 0 119.24670241695682 571.0
11642.0 264.0 0 119.01796833303683 571.0
11664.0 261.0 0 118.78923424911683 571.0
11686.0 248.0 0 118.56050016519684 571.0
11709.0 235.0 0 118.33176608127684 571.0
11731.0 216.0 0 118.10303199735685 571.0
11754.0 216.0 0 117.87429791343686 571.0
11796.0 510.0 500 117.64556382951686 571.0
11818.0 333.0 0 117.41682974559687 571.0
11841.0 331.0 0 117.70444690644734 571.0
11862.0 335.0 0 117.99206406729782 571.0
11885.0 335.0 0 118.27968122814829 571.0
11907.0 335.0 0 118.56729838899876 571.0
11930.0 355.0 0 118.85491554984924 571.0
11953.0 291.0 0 119.1425327106997 571.0
11974.0 267.0 0 119.43014987155017 571.0
11997.0 230.0 0 119.71776703240064 571.0
12019.0 197.0 0 120.00538419325112 571.0
12042.0 185.0 0 120.29300135410159 571.0
12064.0 193.0 0 120.58061851495206 571.0
12086.0 213.0 0 120.86823567580254 571.0
12108.0 224.0 0 121.15585283665301 571.0
12131.0 213.0 0 121.44346999750348 571.0
12153.0 171.0 0 121.73108715835396 571.0
12176.0 135.0 0 122.01870431920442 571.0
12198.0 106.0 0 122.30632148005489 571.0
12220.0 67.0 0 122.59393864090536 571.0
12241.0 67.0 0 122.88155580175584 570.0
12282.0 526.0 500 123.16917296260631 570.0
12305.0 347.0 0 123.45679012345678 570.0
12327.0 332.0 0 123.17182239057239 570.0
12350.0 326.0 0 122.88685465768799 570.0
12372.0 333.0 0 122.60188692480358 569.0
12394.0 343.0 0 122.31691919191918 569.0
12416.0 362.0 0 122.03195145903479 569.0
12439.0 339.0 0 121.74698372615039 569.0
12461.0 275.0 0 121.462015993266 569.0
12484.0 267.0 0 121.1770482603816 569.0
12505.0 270.0 0 120.89208052749719 568.0
12528.0 306.0 0 120.60711279461279 568.0
12551.0 345.0 0 120.32214506172839 568.0
12573.0 349.0 0 120.037177328844 568.0
12596.0 271.0 0 119.7522095959596 568.0
12617.0 271.0 0 119.46724186307519 567.0
12640.0 258.0 0 119.18227413019079 567.0
12662.0 261.0 0 118.8973063973064 567.0
12685.0 266.0 0 118.612338664422 567.0
12707.0 269.0 0 118.3273709315376 567.0
12729.0 323.0 0 118.0424031986532 567.0
12751.0 323.0 0 117.7574354657688 566.0
12794.0 526.0 500 117.4724677328844 566.0
12816.0 350.0 0 117.1875 566.0
12838.0 325.0 0 120.36748293067227 566.0
12861.0 333.0 0 123.54746586134453 566.0
12883.0 332.0 0 126.7274487920168 565.0
12906.0 334.0 0 129.90743172268907 565.0
12927.0 349.0 0 133.08741465336135 565.0
12950.0 344.0 0 136.2673975840336 565.0
12972.0 328.0 0 139.44738051470588 565.0
12995.0 348.0 0 142.62736344537814 564.0
13017.0 345.0 0 145.80734637605042 564.0
13039.0 377.0 0 148.9873293067227 564.0
13062.0 354.0 0 152.16731223739495 564.0
13084.0 326.0 0 155.34729516806723 564.0
13107.0 316.0 0 158.5272780987395 564.0
13129.0 277.0 0 161.70726102941177 563.0
13151.0 366.0 500 164.88724396008405 563.0
13173.0 380.0 0 168.0672268907563 563.0
13196.0 367.0 0 225.36287242169595 563.0
13218.0 284.0 0 282.65851795263563 563.0
13241.0 284.0 0 339.95416348357526 563.0
13283.0 531.0 500 397.2498090145149 563.0
13305.0 347.0 0 454.54545454545456 563.0
13328.0 321.0 0 437.60548124637904 564.0
13349.0 324.0 0 420.66550794730347 564.0
13372.0 337.0 0 403.72553464822795 564.0
13394.0 294.0 0 386.7855613491524 564.0
13417.0 215.0 0 369.84558805007686 565.0
13439.0 175.0 0 352.9056147510013 565.0
13461.0 191.0 0 335.96564145192576 565.0
13483.0 176.0 0 319.02566815285024 565.0
13506.0 165.0 0 302.08569485377467 566.0
13528.0 168.0 0 285.1457215546991 566.0
13551.0 160.0 0 268.2057482556236 566.0
13572.0 151.0 0 251.26577495654806 566.0
13595.0 143.0 0 234.3258016574725 567.0
13618.0 156.0 0 217.38582835839694 567.0
13640.0 182.0 0 200.4458550593214 567.0
13663.0 170.0 0 183.50588176024587 568.0
13684.0 216.0 500 166.56590846117035 568.0
13707.0 187.0 0 149.62593516209478 568.0
13729.0 157.0 0 248.58308773520747 568.0
13752.0 157.0 0 347.5402403083201 569.0
13794.0 510.0 500 446.4973928814328 569.0
13816.0 350.0 0 545.4545454545455 569.0
13839.0 335.0 0 525.323347409237 569.0
13861.0 326.0 0 505.19214936392854 569.0
13883.0 325.0 0 485.0609513186201 569.0
13905.0 318.0 0 464.9297532733116 569.0
13928.0 265.0 0 444.7985552280031 570.0
13950.0 256.0 0 424.6673571826947 570.0
13973.0 283.0 0 404.53615913738616 570.0
13994.0 332.0 0 384.40496109207766 570.0
14017.0 335.0 0 364.2737630467692 570.0
14039.0 311.0 0 344.14256500146075 570.0
14062.0 287.0 0 324.01136695615224 570.0
14084.0 257.0 0 303.8801689108438 571.0
14106.0 230.0 0 283.7489708655353 571.0
14129.0 235.0 0 263.61777282022683 571.0
14151.0 254.0 0 243.48657477491832 571.0
14174.0 255.0 0 223.35537672960987 571.0
14196.0 254.0 0 203.22417868430142 571.0
14218.0 247.0 0 183.09298063899297 571.0
14240.0 247.0 0 162.96178259368446 572.0
14283.0 529.0 500 142.830584548376 572.0
14305.0 342.0 0 122.69938650306749 572.0
14327.0 325.0 0 160.11595766196993 572.0
14350.0 335.0 0 197.5325288208724 572.0
14372.0 336.0 0 234.94909997977481 572.0
14395.0 349.0 0 272.36567113867727 572.0
14416.0 345.0 0 309.7822422975797 572.0
14439.0 476.0 500 347.1988134564822 572.0
14461.0 559.0 0 384.61538461538464 572.0
14484.0 557.0 0 370.2419646081618 572.0
14506.0 554.0 0 355.868544600939 573.0
14528.0 558.0 0 341.4951245937161 573.0
14550.0 557.0 0 327.12170458649337 573.0
14573.0 553.0 0 312.7482845792705 573.0
14595.0 553.0 0 298.37486457204767 573.0
14618.0 561.0 0 284.00144456482485 573.0
14640.0 559.0 0 269.62802455760203 573.0
14662.0 556.0 0 255.2546045503792 573.0
14685.0 554.0 0 240.8811845431564 573.0
14707.0 546.0 0 226.50776453593355 573.0
14730.0 499.0 0 212.1343445287107 573.0
14751.0 499.0 0 197.76092452148788 573.0
14794.0 541.0 500 183.38750451426506 573.0
14817.0 321.0 0 169.01408450704224 573.0
14838.0 310.0 0 173.65616922508835 573.0
14861.0 316.0 0 178.29825394313445 572.0
14883.0 310.0 0 182.94033866118056 572.0
14906.0 334.0 0 187.58242337922667 572.0
14928.0 360.0 0 192.22450809727277 572.0
14950.0 389.0 0 196.86659281531888 571.0
14972.0 347.0 0 201.50867753336496 571.0
14995.0 309.0 0 206.15076225141107 571.0
15017.0 310.0 0 210.79284696945717 571.0
15040.0 284.0 0 215.43493168750328 570.0
15061.0 385.0 500 220.0770164055494 570.0
15084.0 425.0 0 224.7191011235955 570.0
15106.0 383.0 0 229.7803421398927 570.0
15129.0 321.0 0 234.8415831561899 570.0
15152.0 311.0 0 239.90282417248707 569.0
15173.0 308.0 0 244.96406518878428 569.0
15196.0 324.0 0 250.02530620508148 569.0
15218.0 316.0 0 255.08654722137868 569.0
15241.0 316.0 0 260.14778823767585 568.0
15283.0 527.0 500 265.2090292539731 568.0
15305.0 328.0 0 270.27027027027026 568.0
15328.0 330.0 0 265.38026398491513 568.0
15350.0 329.0 0 260.49025769956 568.0
15372.0 323.0 0 255.6002514142049 568.0
15394.0 326.0 0 250.71024512884978 568.0
15417.0 329.0 0 245.82023884349465 568.0
15439.0 343.0 0 240.93023255813952 568.0
15462.0 333.0 0 236.0402262727844 568.0
15483.0 338.0 0 231.1502199874293 568.0
15506.0 339.0 0 226.26021370207417 568.0
15528.0 356.0 0 221.37020741671904 568.0
15551.0 398.0 0 216.4802011313639 568.0
15573.0 469.0 0 211.59019484600879 568.0
15596.0 488.0 0 206.70018856065366 568.0
15617.0 530.0 0 201.81018227529853 568.0
15640.0 551.0 0 196.9201759899434 568.0
15662.0 561.0 0 192.0301697045883 568.0
15685.0 561.0 0 187.1401634192332 568.0
15708.0 559.0 0 182.25015713387805 568.0
15729.0 525.0 0 177.36015084852295 568.0
15752.0 525.0 0 172.47014456316782 568.0
15794.0 520.0 0 167.5801382778127 570.0
15816.0 328.0 0 162.69013199245757 570.0
15839.0 325.0 0 157.80012570710244 571.0
15861.0 322.0 0 152.9101194217473 572.0
15884.0 322.0 0 148.02011313639218 573.0
15905.0 292.0 0 143.13010685103708 574.0
15928.0 224.0 0 138.24010056568196 575.0
15950.0 202.0 0 133.35009428032683 576.0
15973.0 204.0 0 128.46008799497173 576.0
15995.0 197.0 0 123.57008170961657 577.0
16018.0 215.0 0 118.68007542426147 578.0
16039.0 202.0 0 113.79006913890635 579.0
16062.0 180.0 0 108.90006285355122 580.0
16084.0 188.0 0 104.01005656819612 581.0
16107.0 184.0 0 99.12005028284096 581.0
16129.0 195.0 0 94.23004399748584 582.0
16151.0 195.0 0 89.34003771213074 583.0
16173.0 233.0 0 84.45003142677561 584.0
16196.0 223.0 0 79.56002514142051 585.0
16219.0 200.0 0 74.67001885606538 586.0
16241.0 200.0 0 69.78001257071023 586.0
16283.0 521.0 500 64.89000628535513 586.0
16306.0 338.0 0 60.0 586.0
16328.0 323.0 0 62.60985589752713 586.0
16350.0 325.0 0 65.21971179505427 586.0
16372.0 330.0 0 67.82956769258139 585.0
16395.0 332.0 0 70.43942359010852 585.0
16417.0 333.0 0 73.04927948763566 585.0
16440.0 339.0 0 75.65913538516278 585.0
16461.0 345.0 0 78.26899128268991 585.0
16484.0 397.0 0 80.87884718021704 585.0
16506.0 426.0 0 83.48870307774418 584.0
16529.0 416.0 0 86.0985589752713 584.0
16551.0 348.0 0 88.70841487279844 584.0
16573.0 307.0 0 91.31827077032557 584.0
16595.0 311.0 0 93.9281266678527 584.0
16618.0 312.0 0 96.53798256537982 583.0
16640.0 294.0 0 99.14783846290695 583.0
16663.0 295.0 0 101.75769436043409 583.0
16684.0 310.0 0 104.36755025796123 583.0
16707.0 280.0 0 106.97740615548835 583.0
16729.0 266.0 0 109.58726205301548 583.0
16752.0 266.0 0 112.1971179505426 582.0
16794.0 522.0 500 114.80697384806975 582.0
16817.0 339.0 0 117.41682974559687 582.0
16839.0 328.0 0 117.6683800673812 582.0
16862.0 337.0 0 117.9199303891655 581.0
16883.0 327.0 0 118.17148071094982 581.0
16906.0 332.0 0 118.42303103273413 581.0
16928.0 260.0 0 118.67458135451845 581.0
16951.0 238.0 0 118.92613167630276 580.0
16973.0 232.0 0 119.17768199808708 580.0
16995.0 222.0 0 119.42923231987139 580.0
17017.0 221.0 0 119.68078264165571 580.0
17040.0 241.0 0 119.93233296344002 579.0
17062.0 272.0 0 120.18388328522434 579.0
17085.0 287.0 0 120.43543360700865 579.0
17106.0 267.0 0 120.68698392879297 579.0
17129.0 219.0 0 120.93853425057728 579.0
17151.0 197.0 0 121.1900845723616 578.0
17174.0 191.0 0 121.4416348941459 578.0
17196.0 205.0 0 121.69318521593023 578.0
17218.0 195.0 0 121.94473553771454 578.0
17240.0 195.0 0 122.19628585949886 578.0
17283.0 518.0 500 122.44783618128317 578.0
17305.0 349.0 0 122.69938650306749 578.0
17328.0 327.0 0 122.45927028681882 578.0
17350.0 328.0 0 122.21915407057016 578.0
17373.0 328.0 0 121.97903785432149 578.0
17395.0 340.0 0 121.73892163807282 578.0
17417.0 363.0 0 121.49880542182416 578.0
17439.0 341.0 0 121.25868920557551 578.0
17462.0 360.0 0 121.01857298932684 578.0
17484.0 517.0 0 120.77845677307818 578.0
17507.0 555.0 0 120.53834055682951 579.0
17528.0 555.0 0 120.29822434058084 579.0
17551.0 550.0 0 120.05810812433218 579.0
17573.0 523.0 0 119.81799190808351 579.0
17596.0 496.0 0 119.57787569183485 579.0
17618.0 449.0 0 119.33775947558618 579.0
17640.0 434.0 0 119.09764325933752 579.0
17662.0 457.0 0 118.85752704308885 579.0
17685.0 511.0 0 118.6174108268402 579.0
17707.0 514.0 0 118.37729461059153 579.0
17730.0 483.0 0 118.13717839434287 579.0
17751.0 483.0 0 117.8970621780942 580.0
17794.0 526.0 500 117.65694596184554 580.0
17817.0 327.0 0 117.41682974559687 580.0
17838.0 324.0 0 124.29988528240773 580.0
17861.0 315.0 0 131.18294081921857 580.0
17884.0 320.0 0 138.06599635602942 580.0
17906.0 299.0 0 144.9490518928403 580.0
17929.0 256.0 0 151.83210742965113 580.0
17950.0 285.0 0 158.71516296646197 580.0
17973.0 297.0 0 165.59821850327282 580.0
17995.0 277.0 0 172.4812740400837 580.0
18018.0 263.0 0 179.36432957689453 580.0
18040.0 268.0 0 186.24738511370538 580.0
18062.0 242.0 0 193.13044065051622 580.0
18084.0 288.0 500 200.0134961873271 580.0
18107.0 369.0 0 206.89655172413794 580.0
18129.0 377.0 0 218.72292496967597 580.0
18152.0 268.0 0 230.549298215214 580.0
18173.0 272.0 0 242.37567146075202 580.0
18196.0 282.0 0 254.20204470629005 580.0
18218.0 277.0 0 266.0284179518281 580.0
18241.0 277.0 0 277.8547911973661 580.0
18283.0 523.0 500 289.68116444290416 580.0
18305.0 339.0 0 301.5075376884422 580.0
18328.0 324.0 0 293.70754873267435 581.0
18349.0 333.0 0 285.9075597769065 581.0
18372.0 325.0 0 278.10757082113867 581.0
18395.0 341.0 0 270.3075818653708 581.0
18417.0 334.0 0 262.507592909603 582.0
18440.0 298.0 0 254.7076039538351 582.0
18461.0 330.0 0 246.90761499806726 582.0
18484.0 343.0 0 239.10762604229942 582.0
18506.0 342.0 0 231.30763708653154 583.0
18529.0 370.0 0 223.5076481307637 583.0
18551.0 353.0 0 215.70765917499585 583.0
18573.0 326.0 0 207.907670219228 584.0
18595.0 429.0 500 200.10768126346017 584.0
18618.0 442.0 0 192.30769230769232 584.0
18640.0 359.0 0 260.989010989011 584.0
18663.0 360.0 0 329.6703296703297 585.0
18685.0 336.0 0 398.35164835164835 585.0
18707.0 435.0 500 467.032967032967 585.0
18729.0 493.0 0 535.7142857142857 585.0
18752.0 493.0 0 587.0279146141215 586.0
18794.0 536.0 500 638.3415435139573 586.0
18816.0 332.0 0 689.6551724137931 586.0
18839.0 326.0 0 652.4652027673714 586.0
18861.0 335.0 0 615.2752331209495 586.0
18883.0 323.0 0 578.0852634745277 587.0
18905.0 361.0 0 540.8952938281058 587.0
18928.0 288.0 0 503.705324181684 587.0
18951.0 222.0 0 466.5153545352621 587.0
18973.0 202.0 0 429.3253848888403 587.0
18996.0 233.0 0 392.13541524241845 588.0
19017.0 152.0 0 354.94544559599666 588.0
19040.0 177.0 0 317.75547594957476 588.0
19062.0 154.0 0 280.565506303153 588.0
19085.0 226.0 500 243.37553665673107 588.0
19107.0 125.0 0 206.18556701030928 588.0
19129.0 126.0 0 273.05656171635553 589.0
19151.0 167.0 0 339.9275564224018 589.0
19174.0 128.0 0 406.798551128448 589.0
19196.0 191.0 500 473.6695458344943 589.0
19219.0 128.0 0 540.5405405405405 589.0
19240.0 128.0 0 590.2454178316248 590.0
19283.0 513.0 500 639.9502951227089 589.0
19305.0 340.0 0 689.6551724137931 588.0
19327.0 325.0 0 647.4753694581281 588.0
19350.0 334.0 0 605.2955665024631 587.0
19372.0 332.0 0 563.115763546798 587.0
19395.0 322.0 0 520.935960591133 586.0
19416.0 343.0 0 478.75615763546796 586.0
19439.0 327.0 0 436.576354679803 586.0
19462.0 308.0 0 394.39655172413796 585.0
19484.0 308.0 0 352.2167487684729 585.0
19507.0 370.0 500 310.03694581280786 584.0
19528.0 326.0 0 267.85714285714283 584.0
19551.0 274.0 0 262.9573170731707 583.0
19573.0 253.0 0 258.0574912891986 583.0
19596.0 258.0 0 253.15766550522648 582.0
19618.0 238.0 0 248.25783972125433 582.0
19640.0 255.0 0 243.3580139372822 582.0
19662.0 273.0 0 238.4581881533101 581.0
19685.0 285.0 0 233.55836236933797 581.0
19707.0 290.0 0 228.65853658536585 580.0
19730.0 326.0 0 223.7587108013937 580.0
19752.0 326.0 0 218.85888501742158 580.0
19794.0 515.0 500 213.95905923344947 580.0
19817.0 344.0 0 209.05923344947735 580.0
19838.0 331.0 0 205.07715281234445 580.0
19861.0 331.0 0 201.09507217521156 581.0
19883.0 336.0 0 197.11299153807863 581.0
19906.0 369.0 0 193.13091090094574 581.0
19928.0 559.0 0 189.14883026381284 581.0
19950.0 561.0 0 185.16674962667994 582.0
19972.0 556.0 0 181.18466898954705 582.0
19995.0 559.0 0 177.20258835241412 582.0
20018.0 554.0 0 173.22050771528123 582.0
20040.0 556.0 0 169.23842707814833 583.0
20062.0 561.0 0 165.2563464410154 583.0
20084.0 554.0 0 161.27426580388254 583.0
20107.0 558.0 0 157.29218516674962 583.0
20129.0 561.0 0 153.31010452961672 583.0
20152.0 560.0 0 149.32802389248383 584.0
20173.0 556.0 0 145.3459432553509 584.0
20196.0 558.0 0 141.36386261821804 584.0
20218.0 558.0 0 137.3817819810851 584.0
20241.0 558.0 0 133.39970134395222 585.0
20283.0 526.0 0 129.41762070681932 585.0
20305.0 314.0 0 125.43554006968641 585.0
20328.0 313.0 0 121.4534594325535 585.0
20350.0 312.0 0 117.4713787954206 585.0
20372.0 309.0 0 113.48929815828771 585.0
20394.0 315.0 0 109.5072175211548 585.0
20417.0 353.0 0 105.5251368840219 585.0
20439.0 302.0 0 101.543056246889 585.0
20462.0 308.0 0 97.5609756097561 585.0
20483.0 354.0 0 93.57889497262319 585.0
20506.0 285.0 0 89.5968143354903 585.0
20529.0 456.0 500 85.61473369835738 585.0
20551.0 537.0 0 81.63265306122449 585.0
20574.0 551.0 0 84.44857317037768 585.0
20595.0 550.0 0 87.26449327953087 585.0
20618.0 536.0 0 90.08041338868406 585.0
20640.0 547.0 0 92.89633349783725 585.0
20663.0 541.0 0 95.71225360699044 585.0
20685.0 556.0 0 98.52817371614364 585.0
20707.0 556.0 0 101.34409382529682 585.0
20729.0 560.0 0 104.16001393445002 585.0
20752.0 560.0 0 106.97593404360322 584.0
20794.0 539.0 0 109.7918541527564 584.0
20816.0 326.0 0 112.6077742619096 584.0
20839.0 305.0 0 115.4236943710628 584.0
20861.0 310.0 0 118.23961448021598 583.0
20884.0 307.0 0 121.05553458936916 583.0
20905.0 295.0 0 123.87145469852237 583.0
20928.0 194.0 0 126.68737480767555 583.0
20950.0 168.0 0 129.50329491682874 582.0
20973.0 223.0 500 132.31921502598192 582.0
20995.0 244.0 0 135.13513513513513 582.0
21017.0 249.0 0 139.62846220910737 582.0
21040.0 218.0 0 144.1217892830796 582.0
21062.0 247.0 0 148.61511635705185 581.0
21085.0 204.0 0 153.10844343102409 581.0
21107.0 228.0 0 157.60177050499632 581.0
21129.0 327.0 0 162.09509757896856 581.0
21151.0 366.0 0 166.58842465294077 580.0
21174.0 299.0 0 171.081751726913 580.0
21196.0 251.0 0 175.57507880088525 580.0
21219.0 248.0 0 180.0684058748575 580.0
21240.0 248.0 0 184.56173294882973 580.0
21283.0 519.0 500 189.05506002280197 580.0
21305.0 333.0 0 193.5483870967742 581.0
21327.0 318.0 0 192.5854597977853 581.0
21350.0 322.0 0 191.62253249879635 581.0
21372.0 329.0 0 190.65960519980743 582.0
21395.0 324.0 0 189.6966779008185 582.0
21416.0 335.0 0 188.73375060182957 583.0
21439.0 383.0 0 187.77082330284065 583.0
21461.0 406.0 0 186.8078960038517 583.0
21484.0 457.0 0 185.8449687048628 584.0
21506.0 390.0 0 184.88204140587385 584.0
21529.0 384.0 0 183.91911410688493 585.0
21550.0 396.0 0 182.95618680789602 585.0
21573.0 476.0 0 181.99325950890707 585.0
21596.0 421.0 0 181.03033220991816 586.0
21618.0 492.0 500 180.0674049109292 586.0
21641.0 560.0 0 179.1044776119403 587.0
21662.0 557.0 0 202.2194223686761 587.0
21685.0 515.0 0 225.33436712541192 588.0
21707.0 529.0 0 248.4493118821477 588.0
21730.0 450.0 0 271.56425663888353 588.0
21752.0 450.0 0 294.6792013956193 588.0
21794.0 534.0 500 317.7941461523551 588.0
21817.0 327.0 0 340.90909090909093 588.0
21839.0 321.0 0 330.5181526040422 588.0
21861.0 318.0 0 320.12721429899347 588.0
21883.0 325.0 0 309.73627599394473 588.0
21906.0 324.0 0 299.345337688896 588.0
21928.0 330.0 0 288.95439938384726 587.0
21951.0 369.0 0 278.5634610787985 587.0
21972.0 363.0 0 268.1725227737498 587.0
21995.0 307.0 0 257.78158446870106 587.0
22017.0 268.0 0 247.39064616365232 587.0
22040.0 299.0 0 236.99970785860359 587.0
22062.0 252.0 0 226.60876955355485 587.0
22084.0 241.0 0 216.21783124850612 586.0
22107.0 277.0 0 205.82689294345738 586.0
22129.0 226.0 0 195.43595463840865 586.0
22152.0 242.0 0 185.0450163333599 586.0
22174.0 232.0 0 174.65407802831118 586.0
22196.0 247.0 0 164.26313972326244 586.0
22218.0 253.0 0 153.8722014182137 586.0
22241.0 253.0 0 143.48126311316497 585.0
22283.0 518.0 500 133.09032480811624 585.0
22305.0 337.0 0 122.69938650306749 584.0
22328.0 324.0 0 122.44884620747351 584.0
22350.0 321.0 0 122.19830591187953 583.0
22373.0 331.0 0 121.94776561628555 583.0
22394.0 341.0 0 121.69722532069159 582.0
22417.0 299.0 0 121.44668502509761 582.0
22439.0 268.0 0 121.19614472950363 582.0
22462.0 270.0 0 120.94560443390965 581.0
22484.0 286.0 0 120.69506413831567 581.0
22506.0 280.0 0 120.4445238427217 580.0
22528.0 307.0 0 120.19398354712771 580.0
22551.0 368.0 0 119.94344325153375 579.0
22573.0 403.0 0 119.69290295593977 579.0
22596.0 402.0 0 119.4423626603458 578.0
22617.0 345.0 0 119.19182236475181 578.0
22640.0 306.0 0 118.94128206915784 578.0
22663.0 287.0 0 118.69074177356386 577.0
22685.0 284.0 0 118.44020147796988 577.0
22708.0 303.0 0 118.1896611823759 576.0
22729.0 313.0 0 117.93912088678194 576.0
22752.0 313.0 0 117.68858059118796 576.0
22795.0 531.0 500 117.43804029559398 576.0
22816.0 334.0 0 117.1875 576.0
22839.0 328.0 0 155.7459677419355 576.0
22861.0 330.0 0 194.30443548387098 576.0
22884.0 333.0 0 232.86290322580646 576.0
22906.0 330.0 0 271.42137096774195 576.0
22928.0 322.0 0 309.97983870967744 576.0
22950.0 431.0 500 348.5383064516129 576.0
22973.0 456.0 0 387.0967741935484 576.0
22995.0 500.0 0 376.04819098029344 576.0
23018.0 464.0 0 364.9996077670384 576.0
23039.0 437.0 0 353.95102455378344 576.0
23062.0 429.0 0 342.9024413405284 576.0
23084.0 427.0 0 331.85385812727344 576.0
23107.0 442.0 0 320.8052749140184 576.0
23129.0 457.0 0 309.75669170076344 576.0
23151.0 531.0 0 298.7081084875084 576.0
23174.0 553.0 0 287.65952527425344 576.0
23196.0 555.0 0 276.6109420609984 576.0
23219.0 512.0 0 265.56235884774344 576.0
23241.0 512.0 0 254.51377563448844 577.0
23283.0 533.0 0 243.46519242123344 577.0
23306.0 341.0 0 232.41660920797844 577.0
23328.0 319.0 0 221.36802599472347 577.0
23350.0 324.0 0 210.31944278146844 577.0
23372.0 317.0 0 199.27085956821344 577.0
23395.0 318.0 0 188.22227635495847 577.0
23417.0 327.0 0 177.17369314170347 577.0
23440.0 348.0 0 166.12510992844844 577.0
23461.0 305.0 0 155.07652671519344 577.0
23484.0 291.0 0 144.02794350193847 577.0
23506.0 289.0 0 132.97936028868347 577.0
23529.0 269.0 0 121.93077707542847 577.0
23551.0 364.0 500 110.88219386217344 577.0
23573.0 351.0 0 99.83361064891847 577.0
23595.0 309.0 0 114.54160760871798 577.0
23618.0 270.0 0 129.2496045685175 577.0
23640.0 266.0 0 143.95760152831699 577.0
23663.0 261.0 0 158.6655984881165 577.0
23684.0 259.0 0 173.37359544791602 577.0
23707.0 272.0 0 188.0815924077155 577.0
23730.0 295.0 0 202.78958936751502 577.0
23752.0 295.0 0 217.49758632731454 577.0
23794.0 528.0 500 232.20558328711405 577.0
23817.0 340.0 0 246.91358024691357 577.0
23839.0 320.0 0 240.98669450143373 577.0
23862.0 333.0 0 235.05980875595387 576.0
23883.0 333.0 0 229.13292301047403 576.0
23906.0 331.0 0 223.20603726499417 576.0
23928.0 315.0 0 217.27915151951433 576.0
23951.0 305.0 0 211.35226577403446 575.0
23973.0 303.0 0 205.42538002855463 575.0
23995.0 314.0 0 199.49849428307476 575.0
24017.0 343.0 0 193.57160853759493 575.0
24040.0 283.0 0 187.6447227921151 575.0
24062.0 264.0 0 181.71783704663522 574.0
24085.0 256.0 0 175.79095130115536 574.0
24106.0 258.0 0 169.86406555567552 574.0
24129.0 338.0 0 163.9371798101957 574.0
24151.0 326.0 0 158.01029406471582 573.0
24174.0 267.0 0 152.08340831923599 573.0
24196.0 248.0 0 146.15652257375615 573.0
24219.0 254.0 0 140.22963682827628 573.0
24241.0 254.0 0 134.30275108279642 572.0
24284.0 515.0 500 128.37586533731658 572.0
24305.0 343.0 0 122.44897959183673 572.0
24328.0 337.0 0 122.22024550791674 572.0
24350.0 332.0 0 121.99151142399674 572.0
24373.0 337.0 0 121.76277734007675 572.0
24395.0 347.0 0 121.53404325615676 572.0
24417.0 329.0 0 121.30530917223676 572.0
24439.0 328.0 0 121.07657508831677 572.0
24462.0 315.0 0 120.84784100439677 572.0
24484.0 326.0 0 120.61910692047678 572.0
24507.0 326.0 0 120.39037283655679 572.0
24528.0 329.0 0 120.16163875263679 572.0
24551.0 374.0 0 119.9329046687168 572.0
24573.0 375.0 0 119.70417058479681 572.0
24596.0 327.0 0 119.47543650087681 572.0
24618.0 336.0 0 119.24670241695682 572.0
24641.0 337.0 0 119.01796833303683 572.0
24662.0 358.0 0 118.78923424911683 572.0
24685.0 418.0 0 118.56050016519684 572.0
24707.0 459.0 0 118.33176608127684 572.0
24730.0 442.0 0 118.10303199735685 572.0
24753.0 442.0 0 117.87429791343686 572.0
24795.0 536.0 500 117.64556382951686 572.0
24817.0 336.0 0 117.41682974559687 572.0
24840.0 325.0 0 116.08155463523416 573.0
24861.0 332.0 0 114.74627952487144 573.0
24884.0 326.0 0 113.41100441450871 573.0
24906.0 332.0 0 112.075729304146 573.0
24929.0 350.0 0 110.74045419378328 574.0
24951.0 324.0 0 109.40517908342056 574.0
24973.0 324.0 0 108.06990397305785 574.0
24995.0 344.0 0 106.73462886269513 575.0
25018.0 351.0 0 105.39935375233242 575.0
25040.0 358.0 0 104.06407864196969 575.0
25063.0 383.0 0 102.72880353160697 575.0
25084.0 417.0 0 101.39352842124426 576.0
25107.0 519.0 0 100.05825331088154 576.0
25129.0 560.0 0 98.72297820051882 576.0
25152.0 560.0 0 97.3877030901561 576.0
25174.0 558.0 0 96.05242797979338 577.0
25196.0 557.0 0 94.71715286943066 577.0
25218.0 554.0 0 93.38187775906795 577.0
25241.0 554.0 0 92.04660264870523 577.0
25283.0 551.0 0 90.71132753834252 577.0
25305.0 339.0 0 89.3760524279798 577.0
25328.0 315.0 0 88.04077731761707 577.0
25351.0 320.0 0 86.70550220725437 576.0
25373.0 312.0 0 85.37022709689164 576.0
25395.0 304.0 0 84.03495198652892 576.0
25417.0 328.0 0 82.69967687616621 576.0
25440.0 367.0 0 81.36440176580348 576.0
25462.0 364.0 0 80.02912665544076 575.0
25485.0 342.0 0 78.69385154507805 575.0
25506.0 321.0 0 77.35857643471533 575.0
25529.0 317.0 0 76.02330132435262 575.0
25551.0 321.0 0 74.6880262139899 574.0
25574.0 341.0 0 73.35275110362718 574.0
25596.0 331.0 0 72.01747599326447 574.0
25618.0 333.0 0 70.68220088290175 574.0
25640.0 350.0 0 69.34692577253902 574.0
25663.0 385.0 0 68.01165066217631 573.0
25685.0 411.0 0 66.67637555181359 573.0
25708.0 399.0 0 65.34110044145088 573.0
25729.0 367.0 0 64.00582533108815 573.0
25752.0 367.0 0 62.67055022072543 573.0
25795.0 528.0 500 61.33527511036272 573.0
25816.0 338.0 0 60.0 573.0
25839.0 321.0 0 62.997658079625296 573.0
25862.0 332.0 0 65.99531615925059 573.0
25884.0 328.0 0 68.99297423887587 573.0
25907.0 310.0 0 71.99063231850117 573.0
25928.0 307.0 0 74.98829039812647 573.0
25951.0 330.0 0 77.98594847775175 573.0
25973.0 364.0 0 80.98360655737704 573.0
25996.0 410.0 0 83.98126463700234 573.0
26018.0 427.0 0 86.97892271662764 573.0
26040.0 378.0 0 89.97658079625293 573.0
26062.0 317.0 0 92.97423887587823 573.0
26085.0 293.0 0 95.97189695550351 573.0
26107.0 286.0 0 98.9695550351288 573.0
26130.0 280.0 0 101.96721311475409 573.0
26151.0 286.0 0 104.96487119437938 573.0
26174.0 306.0 0 107.96252927400468 573.0
26196.0 301.0 0 110.96018735362998 573.0
26219.0 307.0 0 113.95784543325527 573.0
26241.0 307.0 0 116.95550351288057 574.0
26283.0 510.0 500 119.95316159250585 574.0
26306.0 337.0 0 122.95081967213115 574.0
26328.0 332.0 0 122.69927467547049 574.0
26350.0 328.0 0 122.44772967880985 574.0
26372.0 335.0 0 122.1961846821492 575.0
26395.0 312.0 0 121.94463968548855 575.0
26418.0 248.0 0 121.6930946888279 575.0
26440.0 229.0 0 121.44154969216726 575.0
26462.0 233.0 0 121.1900046955066 575.0
26484.0 238.0 0 120.93845969884596 575.0
26507.0 230.0 0 120.6869147021853 576.0
26529.0 255.0 0 120.43536970552466 576.0
26552.0 289.0 0 120.18382470886401 576.0
26573.0 295.0 0 119.93227971220335 576.0
26596.0 282.0 0 119.68073471554271 576.0
26618.0 239.0 0 119.42918971888206 577.0
26641.0 223.0 0 119.17764472222142 577.0
26663.0 214.0 0 118.92609972556076 577.0
26685.0 220.0 0 118.67455472890012 577.0
26707.0 225.0 0 118.42300973223946 577.0
26730.0 221.0 0 118.17146473557882 577.0
26752.0 221.0 0 117.91991973891817 578.0
26794.0 510.0 500 117.66837474225753 578.0
26817.0 334.0 0 117.41682974559687 578.0
26839.0 328.0 0 117.65645592875116 578.0
26862.0 335.0 0 117.89608211190543 578.0
26883.0 326.0 0 118.13570829505971 578.0
26906.0 340.0 0 118.37533447821399 578.0
26929.0 472.0 0 118.61496066136827 579.0
26951.0 538.0 0 118.85458684452254 579.0
26974.0 554.0 0 119.09421302767683 579.0
26995.0 546.0 0 119.3338392108311 579.0
27018.0 487.0 0 119.57346539398539 579.0
27040.0 409.0 0 119.81309157713966 579.0
27063.0 339.0 0 120.05271776029394 579.0
27085.0 323.0 0 120.29234394344822 580.0
27107.0 346.0 0 120.5319701266025 580.0
27129.0 351.0 0 120.77159630975677 580.0
27152.0 367.0 0 121.01122249291106 580.0
27174.0 316.0 0 121.25084867606533 580.0
27197.0 275.0 0 121.49047485921962 580.0
27218.0 231.0 0 121.73010104237389 580.0
27241.0 231.0 0 121.96972722552817 580.0
27284.0 499.0 500 122.20935340868245 580.0
27305.0 338.0 0 122.44897959183673 580.0
27328.0 324.0 0 133.58070500927644 580.0
27350.0 326.0 0 144.71243042671614 580.0
27373.0 330.0 0 155.84415584415584 580.0
27395.0 349.0 0 166.97588126159553 580.0
27417.0 333.0 0 178.10760667903526 579.0
27440.0 310.0 0 189.23933209647493 579.0
27462.0 268.0 0 200.37105751391465 579.0
27485.0 254.0 0 211.50278293135437 579.0
27507.0 248.0 0 222.63450834879407 579.0
27529.0 357.0 500 233.76623376623377 579.0
27551.0 341.0 0 244.89795918367346 579.0
27574.0 252.0 0 243.14031832828826 578.0
27596.0 255.0 0 241.38267747290303 578.0
27619.0 234.0 0 239.62503661751782 578.0
27640.0 219.0 0 237.86739576213262 578.0
27663.0 236.0 0 236.10975490674738 578.0
27685.0 257.0 0 234.35211405136218 578.0
27708.0 294.0 0 232.59447319597695 578.0
27730.0 308.0 0 230.83683234059174 578.0
27752.0 308.0 0 229.07919148520654 578.0
27795.0 526.0 500 227.3215506298213 578.0
27817.0 347.0 0 225.5639097744361 578.0
27839.0 332.0 0 222.46661429693637 579.0
27861.0 329.0 0 219.36931881943667 579.0
27884.0 330.0 0 216.27202334193694 579.0
27906.0 331.0 0 213.17472786443722 579.0
27929.0 348.0 0 210.0774323869375 580.0
27950.0 330.0 0 206.9801369094378 580.0
27973.0 347.0 0 203.88284143193806 580.0
27996.0 393.0 0 200.78554595443833 581.0
28018.0 365.0 0 197.6882504769386 581.0
28041.0 327.0 0 194.5909549994389 581.0
28062.0 322.0 0 191.49365952193918 581.0
28085.0 331.0 0 188.39636404443945 582.0
28107.0 329.0 0 185.29906856693975 582.0
28130.0 416.0 500 182.20177308944002 582.0
28152.0 465.0 0 179.1044776119403 582.0
28174.0 374.0 0 214.6132084674666 583.0
28196.0 315.0 0 250.1219393229929 583.0
28219.0 301.0 0 285.63067017851915 583.0
28241.0 301.0 0 321.1394010340455 584.0
28283.0 511.0 500 356.6481318895718 584.0
28306.0 341.0 0 392.15686274509807 584.0
28328.0 336.0 0 378.94736842105266 584.0
28351.0 335.0 0 365.73787409700725 584.0
28372.0 331.0 0 352.52837977296184 584.0
28395.0 328.0 0 339.31888544891643 584.0
28417.0 302.0 0 326.109391124871 584.0
28440.0 308.0 0 312.8998968008256 584.0
28462.0 320.0 0 299.6904024767802 584.0
28484.0 318.0 0 286.4809081527348 584.0
28507.0 324.0 0 273.2714138286894 584.0
28529.0 313.0 0 260.061919504644 584.0
28552.0 325.0 0 246.85242518059857 584.0
28574.0 354.0 0 233.64293085655316 584.0
28596.0 375.0 0 220.43343653250776 584.0
28618.0 328.0 0 207.22394220846235 584.0
28641.0 325.0 0 194.01444788441694 584.0
28663.0 318.0 0 180.80495356037153 584.0
28686.0 306.0 0 167.59545923632612 584.0
28708.0 407.0 500 154.3859649122807 584.0
28730.0 429.0 0 141.1764705882353 584.0
28752.0 429.0 0 326.67578659370724 585.0
28794.0 518.0 500 512.1751025991791 585.0
28817.0 347.0 0 697.6744186046511 585.0
28839.0 324.0 0 670.2827310326123 585.0
28862.0 335.0 0 642.8910434605735 585.0
28884.0 336.0 0 615.4993558885348 585.0
28906.0 339.0 0 588.107668316496 585.0
28928.0 364.0 0 560.7159807444573 585.0
28951.0 318.0 0 533.3242931724185 585.0
28973.0 283.0 0 505.9326056003797 585.0
28996.0 283.0 0 478.5409180283409 586.0
29017.0 246.0 0 451.1492304563021 586.0
29040.0 268.0 0 423.75754288426333 586.0
29063.0 280.0 0 396.36585531222454 586.0
29085.0 260.0 0 368.9741677401858 586.0
29108.0 253.0 0 341.58248016814696 586.0
29130.0 270.0 0 314.1907925961082 586.0
29152.0 291.0 0 286.79910502406943 586.0
29174.0 308.0 0 259.40741745203064 586.0
29197.0 302.0 0 232.01572987999185 586.0
29219.0 264.0 0 204.62404230795312 586.0
29242.0 264.0 0 177.23235473591433 586.0
29284.0 517.0 500 149.84066716387554 586.0
29306.0 342.0 0 122.44897959183673 586.0
29328.0 328.0 0 122.22024550791674 585.0
29350.0 335.0 0 121.99151142399674 585.0
29373.0 326.0 0 121.76277734007675 585.0
29395.0 339.0 0 121.53404325615676 584.0
29418.0 334.0 0 121.30530917223676 584.0
29439.0 348.0 0 121.07657508831677 584.0
29462.0 363.0 0 120.84784100439677 583.0
29484.0 399.0 0 120.61910692047678 583.0
29507.0 433.0 0 120.39037283655679 583.0
29529.0 464.0 0 120.16163875263679 582.0
29552.0 428.0 0 119.9329046687168 582.0
29574.0 403.0 0 119.70417058479681 582.0
29596.0 318.0 0 119.47543650087681 582.0
29619.0 275.0 0 119.24670241695682 581.0
29641.0 233.0 0 119.01796833303683 581.0
29664.0 211.0 0 118.78923424911683 581.0
29685.0 232.0 0 118.56050016519684 580.0
29708.0 219.0 0 118.33176608127684 580.0
29730.0 231.0 0 118.10303199735685 580.0
29753.0 231.0 0 117.87429791343686 580.0
29795.0 520.0 500 117.64556382951686 580.0
29817.0 341.0 0 117.41682974559687 580.0
29840.0 330.0 0 117.68035307543184 580.0
29861.0 329.0 0 117.9438764052668 580.0
29884.0 331.0 0 118.20739973510177 580.0
29906.0 321.0 0 118.47092306493673 580.0
29929.0 262.0 0 118.7344463947717 580.0
29951.0 210.0 0 118.99796972460666 580.0
29973.0 199.0 0 119.26149305444163 580.0
29995.0 215.0 0 119.5250163842766 580.0
30018.0 221.0 0 119.78853971411156 580.0
30040.0 227.0 0 120.05206304394653 580.0
30063.0 256.0 0 120.31558637378149 580.0
30084.0 305.0 0 120.57910970361645 580.0
30107.0 318.0 0 120.84263303345142 580.0
30130.0 286.0 0 121.10615636328639 580.0
30152.0 228.0 0 121.36967969312136 580.0
30175.0 190.0 0 121.63320302295632 580.0
30196.0 180.0 0 121.89672635279129 580.0
30219.0 185.0 0 122.16024968262624 580.0
30241.0 185.0 0 122.42377301246121 579.0
30283.0 522.0 500 122.68729634229618 579.0
30306.0 347.0 0 122.95081967213115 579.0
30328.0 333.0 0 149.48140855389687 579.0
30351.0 331.0 0 176.0119974356626 578.0
30373.0 329.0 0 202.54258631742834 578.0
30395.0 351.0 0 229.07317519919405 578.0
30417.0 370.0 0 255.60376408095982 578.0
30440.0 363.0 0 282.13435296272553 578.0
30462.0 420.0 500 308.66494184449124 577.0
30485.0 387.0 0 335.195530726257 577.0
30506.0 310.0 0 324.1230056872515 577.0
30529.0 282.0 0 313.05048064824604 577.0
30551.0 268.0 0 301.97795560924055 576.0
30574.0 271.0 0 290.90543057023507 576.0
30596.0 264.0 0 279.8329055312296 576.0
30618.0 283.0 0 268.7603804922241 576.0
30641.0 298.0 0 257.6878554532186 575.0
30663.0 336.0 0 246.6153304142131 575.0
30686.0 316.0 0 235.5428053752076 575.0
30708.0 296.0 0 224.4702803362021 575.0
30730.0 274.0 0 213.39775529719662 575.0
30752.0 274.0 0 202.32523025819117 575.0
30795.0 525.0 500 191.25270521918566 575.0
30817.0 341.0 0 180.18018018018017 575.0
30839.0 337.0 0 186.0636146350432 575.0
30862.0 332.0 0 191.94704908990622 575.0
30884.0 330.0 0 197.83048354476927 576.0
30907.0 349.0 0 203.7139179996323 576.0
30928.0 351.0 0 209.5973524544953 576.0
30951.0 290.0 0 215.48078690935833 576.0
30973.0 267.0 0 221.36422136422135 576.0
30996.0 249.0 0 227.2476558190844 577.0
31018.0 243.0 0 233.13109027394742 577.0
31040.0 322.0 500 239.01452472881044 577.0
31062.0 303.0 0 244.89795918367346 577.0
31085.0 230.0 0 244.99832719973236 577.0
31107.0 232.0 0 245.09869521579122 577.0
31130.0 222.0 0 245.19906323185012 578.0
31152.0 224.0 0 245.29943124790898 578.0
31174.0 246.0 0 245.39979926396788 578.0
31197.0 256.0 0 245.50016728002677 578.0
31219.0 298.0 0 245.60053529608564 578.0
31242.0 298.0 0 245.70090331214453 578.0
31284.0 512.0 500 245.8012713282034 578.0
31306.0 342.0 0 245.9016393442623 578.0
31329.0 321.0 0 242.0735002702216 578.0
31350.0 336.0 0 238.24536119618088 578.0
31373.0 338.0 0 234.41722212214015 578.0
31395.0 338.0 0 230.58908304809944 578.0
31418.0 331.0 0 226.76094397405873 577.0
31440.0 335.0 0 222.93280490001803 577.0
31462.0 343.0 0 219.1046658259773 577.0
31484.0 383.0 0 215.2765267519366 577.0
31507.0 374.0 0 211.44838767789588 577.0
31529.0 327.0 0 207.62024860385517 577.0
31552.0 331.0 0 203.79210952981447 577.0
31573.0 299.0 0 199.96397045577373 577.0
31596.0 350.0 500 196.13583138173303 576.0
31618.0 443.0 0 192.30769230769232 576.0
31641.0 507.0 0 205.95767298028605 576.0
31664.0 404.0 0 219.60765365287978 576.0
31685.0 338.0 0 233.25763432547353 576.0
31708.0 300.0 0 246.90761499806726 576.0
31730.0 318.0 0 260.557595670661 576.0
31753.0 318.0 0 274.20757634325474 575.0
31795.0 526.0 500 287.85755701584844 575.0
31817.0 349.0 0 301.5075376884422 575.0
31840.0 333.0 0 292.992863822472 575.0
31862.0 325.0 0 284.47818995650175 575.0
31884.0 327.0 0 275.9635160905315 575.0
31906.0 299.0 0 267.4488422245613 575.0
31929.0 270.0 0 258.9341683585911 575.0
31951.0 232.0 0 250.41949449262086 575.0
31974.0 242.0 0 241.90482062665063 575.0
31995.0 267.0 0 233.3901467606804 575.0
32018.0 239.0 0 224.87547289471019 575.0
32040.0 267.0 0 216.36079902873996 575.0
32063.0 261.0 0 207.84612516276974 575.0
32085.0 295.0 0 199.33145129679951 575.0
32107.0 231.0 0 190.8167774308293 575.0
32129.0 233.0 0 182.30210356485907 575.0
32152.0 292.0 0 173.78742969888884 575.0
32174.0 305.0 0 165.27275583291862 575.0
32197.0 349.0 0 156.7580819669484 575.0
32219.0 265.0 0 148.24340810097817 575.0
32241.0 265.0 0 139.72873423500795 575.0
32284.0 532.0 500 131.21406036903772 575.0
32306.0 341.0 0 122.69938650306749 575.0
32328.0 332.0 0 133.80834765584984 575.0
32351.0 325.0 0 144.9173088086322 575.0
32373.0 329.0 0 156.02626996141458 575.0
32396.0 340.0 0 167.13523111419693 575.0
32417.0 380.0 0 178.2441922669793 575.0
32440.0 301.0 0 189.35315341976167 575.0
32462.0 313.0 0 200.462114572544 575.0
32485.0 349.0 0 211.57107572532638 575.0
32507.0 276.0 0 222.68003687810875 576.0
32529.0 326.0 500 233.7889980308911 576.0
32551.0 277.0 0 244.89795918367346 576.0
32574.0 295.0 0 350.34013605442175 576.0
32596.0 268.0 0 455.78231292517 576.0
32619.0 312.0 500 561.2244897959183 576.0
32640.0 316.0 0 666.6666666666666 576.0
32663.0 292.0 0 620.1298701298701 576.0
32685.0 307.0 0 573.5930735930735 576.0
32708.0 314.0 0 527.056277056277 576.0
32731.0 256.0 0 480.51948051948057 576.0
32752.0 256.0 0 433.98268398268397 577.0
32795.0 536.0 500 387.4458874458875 577.0
32818.0 349.0 0 340.90909090909093 578.0
32839.0 331.0 0 330.1221166892809 578.0
32862.0 329.0 0 319.33514246947084 578.0
32884.0 329.0 0 308.5481682496608 579.0
32907.0 337.0 0 297.76119402985074 579.0
32929.0 366.0 0 286.9742198100407 579.0
32951.0 356.0 0 276.18724559023065 579.0
32973.0 389.0 0 265.4002713704206 580.0
32996.0 362.0 0 254.6132971506106 580.0
33018.0 354.0 0 243.82632293080056 580.0
33041.0 311.0 0 233.0393487109905 581.0
33062.0 323.0 0 222.2523744911805 581.0
33085.0 362.0 0 211.4654002713704 581.0
33107.0 310.0 0 200.67842605156036 582.0
33130.0 351.0 500 189.89145183175035 582.0
33152.0 349.0 0 179.1044776119403 582.0
33174.0 314.0 0 422.4332881049299 583.0
33196.0 362.0 500 665.7620985979195 583.0
33219.0 435.0 0 909.0909090909091 583.0
33241.0 435.0 0 835.9456635318704 583.0
33283.0 529.0 500 762.8004179728318 583.0
33306.0 335.0 0 689.6551724137931 582.0
33329.0 324.0 0 647.4753694581281 582.0
33351.0 336.0 0 605.2955665024631 581.0
33373.0 328.0 0 563.115763546798 581.0
33395.0 330.0 0 520.935960591133 580.0
33418.0 339.0 0 478.75615763546796 580.0
33440.0 400.0 0 436.576354679803 579.0
33463.0 404.0 0 394.39655172413796 579.0
33484.0 359.0 0 352.2167487684729 578.0
33507.0 420.0 500 310.03694581280786 578.0
33529.0 546.0 0 267.85714285714283 577.0
33552.0 557.0 0 262.08026208026206 577.0
33574.0 557.0 0 256.3033813033813 576.0
33597.0 558.0 0 250.5265005265005 576.0
33618.0 554.0 0 244.74961974961974 575.0
33641.0 537.0 0 238.97273897273894 575.0
33663.0 553.0 0 233.19585819585816 574.0
33686.0 545.0 0 227.4189774189774 574.0
33708.0 539.0 0 221.64209664209662 573.0
33730.0 553.0 0 215.86521586521584 573.0
33752.0 553.0 0 210.08833508833507 573.0
33795.0 548.0 0 204.3114543114543 573.0
33817.0 329.0 0 198.5345735345735 573.0
33840.0 306.0 0 192.75769275769272 573.0
33862.0 317.0 0 186.98081198081195 573.0
33885.0 321.0 0 181.20393120393118 573.0
33907.0 314.0 0 175.4270504270504 573.0
33929.0 271.0 0 169.65016965016963 573.0
33951.0 269.0 0 163.87328887328886 573.0
33974.0 285.0 0 158.09640809640808 573.0
33996.0 290.0 0 152.3195273195273 573.0
34019.0 311.0 0 146.54264654264654 573.0
34040.0 347.0 0 140.76576576576576 573.0
34063.0 377.0 0 134.98888498888496 573.0
34085.0 404.0 0 129.2120042120042 573.0
34108.0 424.0 0 123.43512343512342 573.0
34130.0 396.0 0 117.65824265824264 573.0
34152.0 355.0 0 111.88136188136184 573.0
34174.0 343.0 0 106.10448110448107 573.0
34197.0 345.0 0 100.32760032760032 573.0
34219.0 354.0 0 94.55071955071955 573.0
34242.0 354.0 0 88.77383877383875 574.0
34284.0 526.0 500 82.99695799695797 574.0
34306.0 340.0 0 77.22007722007721 574.0
34329.0 326.0 0 138.97693002170615 574.0
34350.0 328.0 0 200.73378282333505 574.0
34373.0 324.0 0 262.490635624964 575.0
34396.0 318.0 0 324.2474884265929 575.0
34418.0 381.0 500 386.00434122822185 575.0
34441.0 415.0 0 447.76119402985074 575.0
34462.0 414.0 0 429.7230690051071 575.0
34485.0 332.0 0 411.6849439803634 575.0
34507.0 316.0 0 393.6468189556198 576.0
34530.0 322.0 0 375.60869393087614 576.0
34552.0 319.0 0 357.57056890613245 576.0
34574.0 338.0 0 339.5324438813888 576.0
34596.0 359.0 0 321.4943188566451 576.0
34619.0 404.0 0 303.4561938319015 577.0
34641.0 439.0 0 285.41806880715785 577.0
34664.0 456.0 0 267.37994378241416 577.0
34685.0 418.0 0 249.34181875767052 577.0
34708.0 374.0 0 231.30369373292686 577.0
34730.0 343.0 0 213.2655687081832 577.0
34753.0 343.0 0 195.22744368343956 577.0
34795.0 506.0 500 177.18931865869587 577.0
34817.0 337.0 0 159.15119363395226 577.0
34840.0 330.0 0 181.15673577049034 577.0
34862.0 330.0 0 203.16227790702845 576.0
34884.0 331.0 0 225.16782004356654 576.0
34907.0 327.0 0 247.17336218010462 576.0
34929.0 336.0 0 269.17890431664273 576.0
34952.0 311.0 0 291.18444645318084 575.0
34974.0 428.0 500 313.18998858971895 575.0
34996.0 471.0 0 335.195530726257 575.0
35018.0 460.0 0 324.2995966009122 575.0
35041.0 359.0 0 313.40366247556733 574.0
35063.0 311.0 0 302.5077283502225 574.0
35086.0 311.0 0 291.61179422487766 574.0
35107.0 313.0 0 280.71586009953285 574.0
35130.0 325.0 0 269.81992597418804 574.0
35152.0 338.0 0 258.9239918488432 573.0
35175.0 369.0 0 248.02805772349836 573.0
35197.0 369.0 0 237.13212359815353 573.0
35219.0 338.0 0 226.2361894728087 573.0
35241.0 338.0 0 215.34025534746388 573.0
35284.0 510.0 500 204.44432122211904 573.0
35306.0 332.0 0 193.5483870967742 573.0
35328.0 322.0 0 190.08786176262979 574.0
35351.0 326.0 0 186.62733642848536 574.0
35373.0 326.0 0 183.16681109434094 574.0
35396.0 346.0 0 179.70628576019652 574.0
35417.0 343.0 0 176.24576042605207 575.0
35440.0 288.0 0 172.78523509190765 575.0
35463.0 280.0 0 169.32470975776323 575.0
35485.0 268.0 0 165.8641844236188 575.0
35508.0 275.0 0 162.4036590894744 576.0
35529.0 331.0 0 158.94313375532997 576.0
35552.0 327.0 0 155.48260842118555 576.0
35574.0 271.0 0 152.02208308704112 577.0
35597.0 240.0 0 148.5615577528967 577.0
35619.0 246.0 0 145.10103241875225 577.0
35641.0 244.0 0 141.64050708460786 577.0
35663.0 244.0 0 138.1799817504634 578.0
35686.0 268.0 0 134.719456416319 578.0
35708.0 290.0 0 131.25893108217457 578.0
35731.0 292.0 0 127.79840574803015 578.0
35752.0 292.0 0 124.33788041388573 579.0
35795.0 526.0 500 120.87735507974129 579.0
35818.0 350.0 0 117.41682974559687 579.0
35839.0 338.0 0 128.91552149821445 579.0
35862.0 328.0 0 140.41421325083203 579.0
35884.0 330.0 0 151.91290500344962 579.0
35907.0 342.0 0 163.41159675606718 579.0
35929.0 424.0 0 174.91028850868477 579.0
35951.0 464.0 0 186.40898026130236 579.0
35974.0 422.0 0 197.90767201391992 579.0
35996.0 382.0 0 209.4063637665375 579.0
36019.0 347.0 0 220.9050555191551 579.0
36041.0 424.0 500 232.40374727177266 579.0
36063.0 454.0 0 243.90243902439025 579.0
36085.0 478.0 0 255.54946560701563 579.0
36108.0 446.0 0 267.196492189641 579.0
36130.0 418.0 0 278.8435187722664 579.0
36153.0 368.0 0 290.49054535489176 579.0
36174.0 358.0 0 302.1375719375171 579.0
36197.0 355.0 0 313.7845985201425 579.0
36219.0 407.0 500 325.4316251027679 579.0
36242.0 407.0 0 337.07865168539325 579.0
36284.0 540.0 500 630.0777873811583 579.0
36306.0 339.0 0 923.0769230769231 579.0
36329.0 336.0 0 849.5917490330899 579.0
36350.0 323.0 0 776.1065749892566 579.0
36373.0 333.0 0 702.6214009454233 579.0
36395.0 316.0 0 629.13622690159 579.0
36418.0 329.0 0 555.6510528577568 580.0
36440.0 321.0 0 482.1658788139235 580.0
36463.0 385.0 500 408.6807047700902 580.0
36484.0 373.0 0 335.195530726257 580.0
36507.0 359.0 0 375.29928172386275 580.0
36530.0 334.0 0 415.4030327214685 580.0
36552.0 332.0 0 455.5067837190742 580.0
36575.0 412.0 500 495.6105347166799 581.0
36596.0 481.0 0 535.7142857142857 581.0
36619.0 515.0 0 506.49350649350646 581.0
36641.0 462.0 0 477.27272727272725 581.0
36664.0 420.0 0 448.05194805194805 581.0
36686.0 407.0 0 418.83116883116884 581.0
36708.0 383.0 0 389.6103896103896 581.0
36730.0 392.0 0 360.3896103896104 581.0
36753.0 392.0 0 331.16883116883116 581.0
36795.0 534.0 500 301.948051948052 581.0
36817.0 341.0 0 272.72727272727275 581.0
36840.0 324.0 0 266.48575305291723 581.0
36862.0 335.0 0 260.2442333785618 581.0
36885.0 332.0 0 254.00271370420626 581.0
36906.0 347.0 0 247.76119402985077 581.0
36929.0 367.0 0 241.51967435549525 581.0
36951.0 369.0 0 235.27815468113977 581.0
36974.0 375.0 0 229.03663500678428 581.0
36996.0 399.0 0 222.79511533242876 581.0
37018.0 430.0 0 216.55359565807328 581.0
37041.0 414.0 0 210.3120759837178 581.0
37063.0 403.0 0 204.0705563093623 581.0
37086.0 383.0 0 197.8290366350068 581.0
37108.0 359.0 0 191.58751696065127 581.0
37130.0 524.0 500 185.3459972862958 581.0
37152.0 554.0 0 179.1044776119403 581.0
37175.0 559.0 0 176.51036720334943 581.0
37197.0 519.0 0 173.91625679475857 581.0
37220.0 507.0 0 171.3221463861677 581.0
37241.0 507.0 0 168.72803597757684 581.0
37284.0 540.0 0 166.13392556898597 581.0
37307.0 331.0 0 163.5398151603951 581.0
37328.0 322.0 0 160.94570475180424 581.0
37351.0 326.0 0 158.35159434321338 581.0
37373.0 324.0 0 155.7574839346225 581.0
37396.0 350.0 0 153.16337352603165 581.0
37417.0 399.0 0 150.56926311744076 581.0
37440.0 410.0 0 147.97515270884992 581.0
37462.0 421.0 0 145.38104230025903 581.0
37485.0 449.0 0 142.7869318916682 581.0
37507.0 466.0 0 140.1928214830773 581.0
37529.0 484.0 0 137.59871107448646 581.0
37552.0 540.0 0 135.00460066589557 581.0
37574.0 560.0 0 132.4104902573047 581.0
37597.0 560.0 0 129.81637984871384 581.0
37619.0 558.0 0 127.22226944012297 581.0
37641.0 551.0 0 124.6281590315321 581.0
37663.0 543.0 0 122.03404862294124 581.0
37686.0 561.0 0 119.43993821435038 581.0
37708.0 555.0 0 116.84582780575951 581.0
37731.0 559.0 0 114.25171739716865 581.0
37752.0 559.0 0 111.65760698857778 580.0
37795.0 535.0 0 109.06349657998692 580.0
37818.0 320.0 0 106.46938617139605 580.0
37839.0 312.0 0 103.87527576280519 580.0
37862.0 317.0 0 101.28116535421431 579.0
37884.0 313.0 0 98.68705494562344 579.0
37907.0 314.0 0 96.0929445370326 579.0
37929.0 281.0 0 93.49883412844173 579.0
37951.0 264.0 0 90.90472371985085 578.0
37973.0 246.0 0 88.31061331125998 578.0
37996.0 239.0 0 85.71650290266912 578.0
38018.0 246.0 0 83.12239249407826 578.0
38041.0 270.0 0 80.52828208548739 577.0
38062.0 256.0 0 77.93417167689653 577.0
38085.0 266.0 0 75.34006126830566 577.0
38108.0 298.0 0 72.74595085971478 577.0
38130.0 325.0 0 70.15184045112393 577.0
38153.0 259.0 0 67.55773004253307 576.0
38174.0 267.0 0 64.96361963394219 576.0
38197.0 265.0 0 62.36950922535132 576.0
38219.0 297.0 0 59.77539881676046 576.0
38242.0 297.0 0 57.18128840816961 576.0
38284.0 503.0 500 54.58717799957873 576.0
38306.0 329.0 0 51.99306759098787 576.0
38329.0 317.0 0 57.39643779944874 576.0
38351.0 323.0 0 62.79980800790962 577.0
38373.0 325.0 0 68.20317821637049 577.0
38395.0 326.0 0 73.60654842483136 577.0
38418.0 359.0 0 79.00991863329224 577.0
38440.0 354.0 0 84.41328884175311 578.0
38463.0 369.0 0 89.81665905021399 578.0
38484.0 315.0 0 95.22002925867486 578.0
38507.0 292.0 0 100.62339946713573 578.0
38529.0 282.0 0 106.02676967559661 578.0
38552.0 284.0 0 111.4301398840575 579.0
38574.0 302.0 0 116.83351009251834 579.0
38596.0 317.0 0 122.23688030097924 579.0
38619.0 316.0 0 127.64025050944011 579.0
38641.0 302.0 0 133.04362071790098 580.0
38664.0 297.0 0 138.44699092636185 580.0
38686.0 351.0 500 143.85036113482272 580.0
38708.0 344.0 0 149.2537313432836 580.0
38730.0 298.0 0 249.55497740654528 580.0
38753.0 298.0 0 349.856223469807 580.0
38795.0 520.0 500 450.1574695330686 579.0
38817.0 351.0 0 550.4587155963303 579.0
38840.0 323.0 0 530.0892237347464 579.0
38862.0 333.0 0 509.7197318731624 578.0
38885.0 328.0 0 489.3502400115785 578.0
38906.0 323.0 0 468.98074814999455 577.0
38929.0 299.0 0 448.6112562884106 577.0
38951.0 305.0 0 428.24176442682665 576.0
38974.0 309.0 0 407.8722725652427 576.0
38996.0 353.0 0 387.5027807036588 575.0
39018.0 363.0 0 367.1332888420748 575.0
39040.0 336.0 0 346.7637969804909 575.0
39063.0 308.0 0 326.3943051189069 574.0
39085.0 271.0 0 306.024813257323 574.0
39108.0 276.0 0 285.65532139573907 573.0
39129.0 280.0 0 265.28582953415514 573.0
39152.0 269.0 0 244.91633767257116 572.0
39175.0 263.0 0 224.54684581098724 572.0
39197.0 275.0 0 204.17735394940325 571.0
39220.0 270.0 0 183.80786208781933 571.0
39241.0 270.0 0 163.4383702262354 571.0
39284.0 505.0 500 143.06887836465148 571.0
39307.0 338.0 0 122.69938650306749 571.0
39328.0 330.0 0 122.45927028681882 571.0
39351.0 338.0 0 122.21915407057016 571.0
39373.0 337.0 0 121.97903785432149 572.0
39396.0 338.0 0 121.73892163807282 572.0
39418.0 313.0 0 121.49880542182416 572.0
39440.0 240.0 0 121.25868920557551 572.0
39462.0 202.0 0 121.01857298932684 572.0
39485.0 204.0 0 120.77845677307818 572.0
39507.0 212.0 0 120.53834055682951 573.0
39530.0 202.0 0 120.29822434058084 573.0
39551.0 221.0 0 120.05810812433218 573.0
39574.0 243.0 0 119.81799190808351 573.0
39596.0 264.0 0 119.57787569183485 573.0
39619.0 260.0 0 119.33775947558618 574.0
39641.0 229.0 0 119.09764325933752 574.0
39663.0 196.0 0 118.85752704308885 574.0
39686.0 194.0 0 118.6174108268402 574.0
39708.0 206.0 0 118.37729461059153 574.0
39731.0 189.0 0 118.13717839434287 574.0
39753.0 189.0 0 117.8970621780942 574.0
39795.0 513.0 500 117.65694596184554 574.0
39818.0 343.0 0 117.41682974559687 574.0
39840.0 335.0 0 117.6683800673812 574.0
39862.0 329.0 0 117.9199303891655 574.0
39884.0 338.0 0 118.17148071094982 574.0
39907.0 341.0 0 118.42303103273413 573.0
39929.0 329.0 0 118.67458135451845 573.0
39952.0 317.0 0 118.92613167630276 573.0
39973.0 338.0 0 119.17768199808708 573.0
39996.0 348.0 0 119.42923231987139 573.0
40018.0 372.0 0 119.68078264165571 573.0
40041.0 309.0 0 119.93233296344002 573.0
40063.0 298.0 0 120.18388328522434 573.0
40085.0 299.0 0 120.43543360700865 572.0
40107.0 305.0 0 120.68698392879297 572.0
40130.0 280.0 0 120.93853425057728 572.0
40152.0 304.0 0 121.1900845723616 572.0
40175.0 343.0 0 121.4416348941459 572.0
40196.0 334.0 0 121.69318521593023 572.0
40219.0 272.0 0 121.94473553771454 572.0
40242.0 272.0 0 122.19628585949886 572.0
40284.0 520.0 500 122.44783618128317 572.0
40306.0 344.0 0 122.69938650306749 572.0
40329.0 332.0 0 122.45927028681882 572.0
40351.0 329.0 0 122.21915407057016 572.0
40374.0 334.0 0 121.97903785432149 572.0
40395.0 316.0 0 121.73892163807282 572.0
40418.0 285.0 0 121.49880542182416 572.0
40440.0 309.0 0 121.25868920557551 572.0
40463.0 274.0 0 121.01857298932684 572.0
40485.0 232.0 0 120.77845677307818 572.0
40507.0 221.0 0 120.53834055682951 572.0
40529.0 207.0 0 120.29822434058084 572.0
40552.0 217.0 0 120.05810812433218 572.0
40574.0 257.0 0 119.81799190808351 572.0
40597.0 249.0 0 119.57787569183485 572.0
40618.0 198.0 0 119.33775947558618 572.0
40641.0 178.0 0 119.09764325933752 572.0
40663.0 199.0 0 118.85752704308885 572.0
40686.0 222.0 0 118.6174108268402 572.0
40708.0 232.0 0 118.37729461059153 572.0
40730.0 248.0 0 118.13717839434287 572.0
40753.0 248.0 0 117.8970621780942 572.0
40795.0 528.0 500 117.65694596184554 572.0
40817.0 345.0 0 117.41682974559687 572.0
40840.0 328.0 0 132.58097636744975 572.0
40862.0 330.0 0 147.74512298930262 572.0
40885.0 327.0 0 162.90926961115548 572.0
40906.0 343.0 0 178.07341623300834 572.0
40929.0 369.0 0 193.2375628548612 572.0
40951.0 359.0 0 208.40170947671407 572.0
40974.0 359.0 0 223.56585609856694 572.0
40996.0 349.0 0 238.7300027204198 572.0
41018.0 433.0 500 253.89414934227267 572.0
41040.0 493.0 0 269.05829596412553 572.0
41063.0 456.0 0 298.84211230841305 572.0
41085.0 352.0 0 328.6259286527006 572.0
41108.0 295.0 0 358.40974499698814 572.0
41129.0 294.0 0 388.19356134127565 572.0
41152.0 372.0 500 417.9773776855632 572.0
41174.0 363.0 0 447.76119402985074 572.0
41197.0 294.0 0 449.11804613297153 572.0
41219.0 261.0 0 450.47489823609226 572.0
41241.0 261.0 0 451.83175033921304 571.0
41284.0 530.0 500 453.1886024423338 571.0
41307.0 347.0 0 454.54545454545456 571.0
41328.0 332.0 0 435.3932584269663 571.0
41351.0 329.0 0 416.24106230847804 571.0
41373.0 328.0 0 397.0888661899898 571.0
41396.0 322.0 0 377.93667007150157 571.0
41418.0 341.0 0 358.7844739530133 571.0
41440.0 345.0 0 339.63227783452504 571.0
41462.0 332.0 0 320.48008171603675 571.0
41485.0 307.0 0 301.3278855975485 571.0
41507.0 322.0 0 282.1756894790602 571.0
41530.0 295.0 0 263.023493360572 571.0
41551.0 336.0 500 243.87129724208376 571.0
41574.0 322.0 0 224.7191011235955 571.0
41596.0 328.0 0 238.52865482392818 571.0
41619.0 357.0 0 252.33820852426086 571.0
41641.0 369.0 0 266.1477622245936 571.0
41663.0 363.0 0 279.95731592492626 571.0
41685.0 346.0 0 293.76686962525895 571.0
41708.0 322.0 0 307.57642332559163 571.0
41730.0 410.0 500 321.3859770259243 571.0
41753.0 410.0 0 335.195530726257 571.0
41795.0 534.0 500 629.1362269015901 571.0
41817.0 349.0 0 923.0769230769231 571.0
41840.0 336.0 0 878.0662062395809 571.0
41862.0 330.0 0 833.0554894022387 571.0
41884.0 331.0 0 788.0447725648964 571.0
41907.0 345.0 0 743.0340557275542 572.0
41929.0 404.0 0 698.0233388902119 572.0
41952.0 386.0 0 653.0126220528697 572.0
41973.0 354.0 0 608.0019052155276 572.0
41996.0 296.0 0 562.9911883781853 572.0
42018.0 274.0 0 517.980471540843 572.0
42041.0 245.0 0 472.96975470350077 572.0
42063.0 212.0 0 427.95903786615855 572.0
42085.0 239.0 0 382.9483210288163 573.0
42107.0 226.0 0 337.9376041914742 573.0
42130.0 228.0 0 292.92688735413196 573.0
42152.0 215.0 0 247.91617051678963 573.0
42175.0 275.0 500 202.90545367944742 573.0
42196.0 254.0 0 157.89473684210526 573.0
42219.0 217.0 0 257.3099415204678 573.0
42241.0 217.0 0 356.72514619883043 574.0
42283.0 520.0 500 456.140350877193 574.0
42306.0 346.0 0 555.5555555555555 574.0
42328.0 330.0 0 535.6297348484849 574.0
42351.0 334.0 0 515.7039141414141 574.0
42374.0 337.0 0 495.7780934343434 574.0
42395.0 320.0 0 475.85227272727275 574.0
42418.0 298.0 0 455.926452020202 574.0
42440.0 329.0 0 436.0006313131313 574.0
42463.0 323.0 0 416.0748106060606 574.0
42485.0 362.0 0 396.1489898989899 574.0
42507.0 336.0 0 376.22316919191917 574.0
42529.0 314.0 0 356.2973484848485 574.0
42552.0 287.0 0 336.37152777777777 574.0
42574.0 241.0 0 316.44570707070704 574.0
42597.0 243.0 0 296.5198863636363 574.0
42618.0 254.0 0 276.59406565656565 574.0
42641.0 251.0 0 256.668244949495 574.0
42663.0 261.0 0 236.74242424242425 574.0
42686.0 299.0 0 216.81660353535352 574.0
42708.0 265.0 0 196.8907828282828 574.0
42730.0 260.0 0 176.96496212121212 574.0
42752.0 260.0 0 157.03914141414145 575.0
42795.0 524.0 500 137.11332070707067 575.0
42817.0 341.0 0 117.1875 575.0
42839.0 326.0 0 144.43850384078212 575.0
42862.0 326.0 0 171.68950768156424 575.0
42884.0 338.0 0 198.94051152234638 575.0
42907.0 311.0 0 226.1915153631285 575.0
42929.0 219.0 0 253.44251920391062 575.0
42951.0 195.0 0 280.69352304469277 575.0
42974.0 238.0 500 307.9445268854749 575.0
42996.0 213.0 0 335.195530726257 575.0
43019.0 180.0 0 324.2995966009122 575.0
43040.0 211.0 0 313.40366247556733 575.0
43063.0 265.0 0 302.5077283502225 575.0
43085.0 261.0 0 291.61179422487766 575.0
43108.0 233.0 0 280.71586009953285 575.0
43130.0 203.0 0 269.81992597418804 575.0
43152.0 205.0 0 258.9239918488432 575.0
43174.0 211.0 0 248.02805772349836 575.0
43197.0 220.0 0 237.13212359815353 575.0
43219.0 218.0 0 226.2361894728087 575.0
43242.0 218.0 0 215.34025534746388 575.0
43284.0 515.0 500 204.44432122211904 575.0
43306.0 335.0 0 193.5483870967742 575.0
43329.0 325.0 0 211.4896701703516 574.0
43350.0 330.0 0 229.43095324392897 574.0
43373.0 337.0 0 247.37223631750635 574.0
43395.0 326.0 0 265.31351939108373 574.0
43418.0 307.0 0 283.2548024646611 573.0
43441.0 279.0 0 301.1960855382385 573.0
43462.0 384.0 500 319.1373686118159 573.0
43485.0 410.0 0 337.07865168539325 573.0
43507.0 365.0 0 325.87161800644947 572.0
43530.0 280.0 0 314.6645843275057 572.0
43552.0 283.0 0 303.4575506485619 572.0
43574.0 289.0 0 292.2505169696181 571.0
43596.0 296.0 0 281.0434832906743 571.0
43619.0 299.0 0 269.83644961173053 571.0
43641.0 336.0 0 258.62941593278674 571.0
43664.0 387.0 0 247.42238225384293 570.0
43686.0 365.0 0 236.2153485748991 570.0
43708.0 353.0 0 225.00831489595532 570.0
43730.0 315.0 0 213.80128121701154 570.0
43753.0 315.0 0 202.59424753806778 570.0
43795.0 536.0 500 191.38721385912396 570.0
43817.0 349.0 0 180.18018018018017 570.0
43840.0 332.0 0 189.06799175857472 571.0
43862.0 326.0 0 197.95580333696924 571.0
43884.0 331.0 0 206.8436149153638 571.0
43906.0 320.0 0 215.7314264937583 571.0
43929.0 275.0 0 224.61923807215285 571.0
43952.0 251.0 0 233.5070496505474 572.0
43974.0 231.0 0 242.39486122894192 572.0
43997.0 197.0 0 251.28267280733647 572.0
44018.0 238.0 500 260.170484385731 572.0
44041.0 317.0 0 269.05829596412553 573.0
44063.0 332.0 0 265.104260855972 573.0
44086.0 257.0 0 261.15022574781835 573.0
44108.0 230.0 0 257.1961906396648 573.0
44130.0 239.0 0 253.2421555315112 573.0
44152.0 249.0 0 249.2881204233576 574.0
44175.0 267.0 0 245.33408531520402 574.0
44197.0 310.0 0 241.38005020705043 574.0
44220.0 319.0 0 237.42601509889684 574.0
44241.0 319.0 0 233.47197999074325 574.0
44284.0 529.0 500 229.5179448825897 574.0
44306.0 347.0 0 225.5639097744361 574.0
44328.0 339.0 0 222.46661429693637 574.0
44351.0 325.0 0 219.36931881943667 574.0
44373.0 333.0 0 216.27202334193694 574.0
44396.0 324.0 0 213.17472786443722 574.0
44418.0 357.0 0 210.0774323869375 573.0
44440.0 350.0 0 206.9801369094378 573.0
44462.0 359.0 0 203.88284143193806 573.0
44485.0 407.0 0 200.78554595443833 573.0
44508.0 433.0 0 197.6882504769386 573.0
44530.0 470.0 0 194.5909549994389 573.0
44552.0 435.0 0 191.49365952193918 573.0
44574.0 388.0 0 188.39636404443945 572.0
44597.0 368.0 0 185.29906856693975 572.0
44619.0 501.0 500 182.20177308944002 572.0
44642.0 556.0 0 179.1044776119403 572.0
44663.0 554.0 0 202.2194223686761 572.0
44686.0 550.0 0 225.33436712541192 572.0
44708.0 512.0 0 248.4493118821477 572.0
44731.0 453.0 0 271.56425663888353 572.0
44753.0 453.0 0 294.6792013956193 572.0
44795.0 522.0 500 317.7941461523551 572.0
44818.0 330.0 0 340.90909090909093 572.0
44840.0 321.0 0 333.60389610389615 572.0
44862.0 325.0 0 326.2987012987013 572.0
44884.0 331.0 0 318.9935064935065 572.0
44907.0 292.0 0 311.68831168831167 572.0
44929.0 258.0 0 304.3831168831169 572.0
44952.0 208.0 0 297.0779220779221 572.0
44973.0 202.0 0 289.77272727272725 572.0
44996.0 187.0 0 282.46753246753246 573.0
45019.0 229.0 500 275.1623376623376 573.0
45041.0 240.0 0 267.85714285714283 573.0
45064.0 212.0 0 481.6017316017316 573.0
45085.0 258.0 500 695.3463203463205 573.0
45108.0 264.0 0 909.0909090909091 573.0
45130.0 226.0 0 834.4155844155845 573.0
45153.0 202.0 0 759.7402597402597 573.0
45175.0 200.0 0 685.0649350649351 573.0
45197.0 291.0 500 610.3896103896104 573.0
45219.0 358.0 0 535.7142857142857 573.0
45242.0 358.0 0 587.0279146141215 574.0
45284.0 524.0 500 638.3415435139573 574.0
45306.0 340.0 0 689.6551724137931 574.0
45329.0 334.0 0 658.3751467919292 574.0
45351.0 332.0 0 627.0951211700651 574.0
45374.0 320.0 0 595.8150955482012 574.0
45395.0 317.0 0 564.5350699263372 574.0
45418.0 318.0 0 533.2550443044731 574.0
45440.0 288.0 0 501.9750186826092 574.0
45463.0 240.0 0 470.6949930607452 574.0
45485.0 257.0 0 439.41496743888126 574.0
45507.0 235.0 0 408.13494181701725 574.0
45529.0 220.0 0 376.85491619515324 574.0
45552.0 248.0 0 345.5748905732892 574.0
45575.0 269.0 0 314.29486495142527 574.0
45596.0 252.0 0 283.0148393295613 574.0
45619.0 258.0 0 251.7348137076973 574.0
45641.0 234.0 0 220.4547880858333 574.0
45664.0 290.0 500 189.17476246396933 574.0
45686.0 279.0 0 157.89473684210526 574.0
45708.0 245.0 0 217.91884290879872 574.0
45730.0 243.0 0 277.9429489754922 574.0
45753.0 243.0 0 337.9670550421856 573.0
45795.0 515.0 500 397.9911611088791 573.0
45817.0 341.0 0 458.01526717557255 572.0
45840.0 339.0 0 442.0478442864056 572.0
45862.0 335.0 0 426.08042139723875 572.0
45885.0 326.0 0 410.1129985080718 571.0
45906.0 324.0 0 394.1455756189049 571.0
45929.0 359.0 0 378.17815272973803 571.0
45951.0 341.0 0 362.2107298405711 571.0
45974.0 368.0 0 346.2433069514042 570.0
45996.0 382.0 0 330.2758840622373 570.0
46018.0 384.0 0 314.3084611730704 570.0
46040.0 333.0 0 298.34103828390346 569.0
46063.0 335.0 0 282.3736153947366 569.0
46086.0 322.0 0 266.40619250556966 569.0
46108.0 320.0 0 250.43876961640274 568.0
46130.0 324.0 0 234.47134672723587 568.0
46152.0 326.0 0 218.50392383806894 568.0
46175.0 329.0 0 202.53650094890205 567.0
46197.0 358.0 0 186.56907805973515 567.0
46220.0 418.0 0 170.60165517056822 567.0
46241.0 418.0 0 154.6342322814013 567.0
46284.0 541.0 500 138.66680939223443 567.0
46307.0 348.0 0 122.69938650306749 567.0
46328.0 333.0 0 122.45927028681882 568.0
46351.0 326.0 0 122.21915407057016 568.0
46373.0 330.0 0 121.97903785432149 568.0
46396.0 320.0 0 121.73892163807282 568.0
46418.0 289.0 0 121.49880542182416 569.0
46440.0 307.0 0 121.25868920557551 569.0
46462.0 296.0 0 121.01857298932684 569.0
46485.0 302.0 0 120.77845677307818 569.0
46507.0 320.0 0 120.53834055682951 570.0
46530.0 342.0 0 120.29822434058084 570.0
46551.0 351.0 0 120.05810812433218 570.0
46574.0 340.0 0 119.81799190808351 571.0
46596.0 295.0 0 119.57787569183485 571.0
46619.0 296.0 0 119.33775947558618 571.0
46642.0 291.0 0 119.09764325933752 571.0
46663.0 310.0 0 118.85752704308885 572.0
46686.0 279.0 0 118.6174108268402 572.0
46708.0 294.0 0 118.37729461059153 572.0
46731.0 301.0 0 118.13717839434287 572.0
46753.0 301.0 0 117.8970621780942 573.0
46795.0 519.0 500 117.65694596184554 573.0
46818.0 347.0 0 117.41682974559687 573.0
46840.0 337.0 0 117.6683800673812 573.0
46862.0 332.0 0 117.9199303891655 573.0
46884.0 326.0 0 118.17148071094982 573.0
46907.0 326.0 0 118.42303103273413 573.0
46929.0 332.0 0 118.67458135451845 573.0
46952.0 270.0 0 118.92613167630276 573.0
46973.0 250.0 0 119.17768199808708 573.0
46996.0 246.0 0 119.42923231987139 573.0
47018.0 255.0 0 119.68078264165571 573.0
47041.0 255.0 0 119.93233296344002 573.0
47063.0 278.0 0 120.18388328522434 573.0
47085.0 314.0 0 120.43543360700865 573.0
47107.0 332.0 0 120.68698392879297 573.0
47130.0 328.0 0 120.93853425057728 573.0
47153.0 304.0 0 121.1900845723616 573.0
47175.0 284.0 0 121.4416348941459 573.0
47198.0 268.0 0 121.69318521593023 573.0
47219.0 272.0 0 121.94473553771454 573.0
47242.0 272.0 0 122.19628585949886 574.0
47284.0 520.0 500 122.44783618128317 574.0
47306.0 347.0 0 122.69938650306749 574.0
47329.0 332.0 0 149.26140453096616 574.0
47351.0 335.0 0 175.82342255886488 574.0
47374.0 324.0 0 202.38544058676354 574.0
47395.0 326.0 0 228.94745861466225 574.0
47418.0 325.0 0 255.5094766425609 575.0
47440.0 309.0 0 282.07149467045963 575.0
47463.0 414.0 500 308.6335126983583 575.0
47485.0 449.0 0 335.195530726257 575.0
47508.0 415.0 0 324.1230056872515 575.0
47529.0 354.0 0 313.05048064824604 575.0
47552.0 327.0 0 301.97795560924055 575.0
47574.0 324.0 0 290.90543057023507 576.0
47597.0 328.0 0 279.8329055312296 576.0
47619.0 344.0 0 268.7603804922241 576.0
47641.0 390.0 0 257.6878554532186 576.0
47664.0 426.0 0 246.6153304142131 576.0
47686.0 451.0 0 235.5428053752076 576.0
47709.0 446.0 0 224.4702803362021 576.0
47731.0 398.0 0 213.39775529719662 576.0
47753.0 398.0 0 202.32523025819117 576.0
47796.0 525.0 500 191.25270521918566 576.0
47818.0 345.0 0 180.18018018018017 576.0
47840.0 332.0 0 193.49349349349347 576.0
47862.0 320.0 0 206.8068068068068 576.0
47885.0 325.0 0 220.1201201201201 576.0
47907.0 317.0 0 233.43343343343344 576.0
47930.0 288.0 0 246.74674674674674 576.0
47951.0 296.0 0 260.06006006006004 576.0
47974.0 275.0 0 273.3733733733734 576.0
47996.0 378.0 500 286.6866866866867 575.0
48019.0 345.0 0 300.0 575.0
48041.0 327.0 0 292.3611111111111 575.0
48063.0 294.0 0 284.72222222222223 575.0
48085.0 323.0 0 277.0833333333333 575.0
48108.0 296.0 0 269.44444444444446 575.0
48130.0 326.0 0 261.80555555555554 575.0
48153.0 340.0 0 254.16666666666669 575.0
48174.0 353.0 0 246.52777777777777 575.0
48197.0 392.0 0 238.8888888888889 575.0
48220.0 435.0 0 231.25 575.0
48242.0 435.0 0 223.61111111111111 574.0
48284.0 519.0 500 215.97222222222223 574.0
48307.0 340.0 0 208.33333333333334 574.0
48329.0 334.0 0 211.56688839615668 574.0
48352.0 334.0 0 214.80044345898006 574.0
48373.0 334.0 0 218.0339985218034 574.0
48396.0 306.0 0 221.26755358462677 574.0
48418.0 292.0 0 224.5011086474501 574.0
48441.0 296.0 0 227.73466371027348 574.0
48463.0 284.0 0 230.96821877309682 574.0
48485.0 240.0 0 234.2017738359202 574.0
48507.0 229.0 0 237.43532889874353 573.0
48530.0 317.0 500 240.6688839615669 573.0
48552.0 293.0 0 243.90243902439025 573.0
48575.0 283.0 0 242.3126804166841 573.0
48596.0 225.0 0 240.72292180897796 573.0
48619.0 204.0 0 239.1331632012718 573.0
48641.0 225.0 0 237.54340459356567 573.0
48664.0 236.0 0 235.9536459858595 573.0
48686.0 235.0 0 234.36388737815338 573.0
48708.0 273.0 0 232.77412877044722 573.0
48731.0 271.0 0 231.1843701627411 573.0
48753.0 271.0 0 229.59461155503493 573.0
48795.0 533.0 500 228.0048529473288 573.0
48818.0 335.0 0 226.41509433962264 573.0
48840.0 333.0 0 226.20388622923122 573.0
48863.0 331.0 0 225.99267811883976 573.0
48885.0 331.0 0 225.7814700084483 573.0
48907.0 339.0 0 225.57026189805688 573.0
48929.0 344.0 0 225.35905378766546 573.0
48952.0 419.0 0 225.147845677274 573.0
48974.0 403.0 0 224.93663756688255 573.0
48997.0 357.0 0 224.72542945649113 573.0
49018.0 338.0 0 224.5142213460997 573.0
49041.0 301.0 0 224.30301323570825 573.0
49063.0 380.0 500 224.0918051253168 573.0
49086.0 443.0 0 223.88059701492537 573.0
49108.0 433.0 0 229.1708876432318 573.0
49130.0 341.0 0 234.46117827153824 573.0
49152.0 321.0 0 239.75146889984467 573.0
49175.0 308.0 0 245.0417595281511 573.0
49197.0 320.0 0 250.33205015645754 573.0
49220.0 307.0 0 255.62234078476396 573.0
49241.0 307.0 0 260.9126314130704 573.0
49284.0 534.0 500 266.20292204137684 573.0
49307.0 340.0 0 271.49321266968326 573.0
49329.0 336.0 0 264.48974071858845 573.0
49351.0 336.0 0 257.4862687674936 573.0
49374.0 332.0 0 250.48279681639875 573.0
49396.0 317.0 0 243.4793248653039 573.0
49419.0 267.0 0 236.4758529142091 572.0
49440.0 275.0 0 229.47238096311426 572.0
49463.0 288.0 0 222.46890901201942 572.0
49485.0 328.0 0 215.4654370609246 572.0
49508.0 305.0 0 208.46196510982975 572.0
49530.0 295.0 0 201.4584931587349 572.0
49552.0 254.0 0 194.45502120764007 572.0
49574.0 267.0 0 187.45154925654526 571.0
49597.0 298.0 0 180.4480773054504 571.0
49619.0 367.0 0 173.4446053543556 571.0
49642.0 354.0 0 166.44113340326072 571.0
49663.0 297.0 0 159.4376614521659 571.0
49686.0 286.0 0 152.43418950107105 571.0
49708.0 283.0 0 145.43071754997624 571.0
49731.0 308.0 0 138.4272455988814 571.0
49753.0 308.0 0 131.42377364778656 571.0
49795.0 526.0 500 124.42030169669172 571.0
49818.0 346.0 0 117.41682974559687 572.0
49841.0 335.0 0 117.6683800673812 572.0
49862.0 323.0 0 117.9199303891655 572.0
49885.0 325.0 0 118.17148071094982 573.0
49907.0 299.0 0 118.42303103273413 573.0
49930.0 251.0 0 118.67458135451845 573.0
49952.0 268.0 0 118.92613167630276 573.0
49974.0 261.0 0 119.17768199808708 574.0
49996.0 298.0 0 119.42923231987139 574.0
50019.0 313.0 0 119.68078264165571 574.0
50041.0 316.0 0 119.93233296344002 575.0
50064.0 296.0 0 120.18388328522434 575.0
50085.0 275.0 0 120.43543360700865 575.0
50108.0 272.0 0 120.68698392879297 576.0
50130.0 298.0 0 120.93853425057728 576.0
50153.0 324.0 0 121.1900845723616 576.0
50175.0 368.0 0 121.4416348941459 577.0
50197.0 295.0 0 121.69318521593023 577.0
50219.0 267.0 0 121.94473553771454 577.0
50242.0 267.0 0 122.19628585949886 578.0
50284.0 525.0 500 122.44783618128317 578.0
50306.0 345.0 0 122.69938650306749 578.0
50329.0 336.0 0 122.44884620747351 578.0
50352.0 332.0 0 122.19830591187953 579.0
50374.0 326.0 0 121.94776561628555 579.0
50396.0 336.0 0 121.69722532069159 579.0
50418.0 310.0 0 121.44668502509761 579.0
50441.0 322.0 0 121.19614472950363 580.0
50463.0 301.0 0 120.94560443390965 580.0
50486.0 299.0 0 120.69506413831567 580.0
50507.0 319.0 0 120.4445238427217 580.0
50530.0 313.0 0 120.19398354712771 580.0
50552.0 326.0 0 119.94344325153375 581.0
50575.0 363.0 0 119.69290295593977 581.0
50597.0 340.0 0 119.4423626603458 581.0
50619.0 290.0 0 119.19182236475181 581.0
50641.0 288.0 0 118.94128206915784 582.0
50664.0 309.0 0 118.69074177356386 582.0
50686.0 411.0 0 118.44020147796988 582.0
50709.0 424.0 0 118.1896611823759 582.0
50730.0 381.0 0 117.93912088678194 582.0
50753.0 381.0 0 117.68858059118796 582.0
50796.0 516.0 500 117.43804029559398 582.0
50817.0 341.0 0 117.1875 582.0
50840.0 330.0 0 117.461943793911 581.0
50862.0 335.0 0 117.73638758782201 581.0
50885.0 335.0 0 118.01083138173303 581.0
50908.0 320.0 0 118.28527517564403 580.0
50929.0 239.0 0 118.55971896955504 580.0
50952.0 220.0 0 118.83416276346604 580.0
50974.0 208.0 0 119.10860655737704 580.0
50997.0 207.0 0 119.38305035128806 579.0
51019.0 207.0 0 119.65749414519907 579.0
51041.0 222.0 0 119.93193793911007 579.0
51063.0 213.0 0 120.20638173302108 579.0
51086.0 222.0 0 120.48082552693208 578.0
51108.0 237.0 0 120.7552693208431 578.0
51131.0 269.0 0 121.0297131147541 578.0
51152.0 261.0 0 121.3041569086651 578.0
51175.0 236.0 0 121.57860070257611 577.0
51197.0 235.0 0 121.85304449648712 577.0
51220.0 210.0 0 122.12748829039812 577.0
51242.0 210.0 0 122.40193208430914 576.0
51284.0 526.0 500 122.67637587822014 576.0
51307.0 348.0 0 122.95081967213115 576.0
51329.0 335.0 0 122.69927467547049 576.0
51351.0 329.0 0 122.44772967880985 576.0
51373.0 330.0 0 122.1961846821492 575.0
51396.0 328.0 0 121.94463968548855 575.0
51419.0 340.0 0 121.6930946888279 575.0
51441.0 346.0 0 121.44154969216726 575.0
51463.0 370.0 0 121.1900046955066 575.0
51485.0 346.0 0 120.93845969884596 575.0
51508.0 338.0 0 120.6869147021853 574.0
51530.0 311.0 0 120.43536970552466 574.0
51553.0 290.0 0 120.18382470886401 574.0
51574.0 310.0 0 119.93227971220335 574.0
51597.0 302.0 0 119.68073471554271 574.0
51619.0 284.0 0 119.42918971888206 573.0
51642.0 291.0 0 119.17764472222142 573.0
51664.0 292.0 0 118.92609972556076 573.0
51686.0 291.0 0 118.67455472890012 573.0
51708.0 310.0 0 118.42300973223946 573.0
51731.0 316.0 0 118.17146473557882 573.0
51753.0 316.0 0 117.91991973891817 573.0
51795.0 514.0 500 117.66837474225753 573.0
51818.0 347.0 0 117.41682974559687 573.0
51840.0 338.0 0 117.6683800673812 573.0
51863.0 335.0 0 117.9199303891655 573.0
51884.0 330.0 0 118.17148071094982 573.0
51907.0 331.0 0 118.42303103273413 573.0
51929.0 327.0 0 118.67458135451845 573.0
51952.0 323.0 0 118.92613167630276 573.0
51975.0 341.0 0 119.17768199808708 573.0
51996.0 352.0 0 119.42923231987139 573.0
52019.0 392.0 0 119.68078264165571 573.0
52041.0 453.0 0 119.93233296344002 573.0
52064.0 481.0 0 120.18388328522434 573.0
52086.0 434.0 0 120.43543360700865 573.0
52108.0 383.0 0 120.68698392879297 573.0
52130.0 345.0 0 120.93853425057728 573.0
52153.0 320.0 0 121.1900845723616 573.0
52175.0 333.0 0 121.4416348941459 573.0
52198.0 330.0 0 121.69318521593023 573.0
52219.0 293.0 0 121.94473553771454 573.0
52242.0 293.0 0 122.19628585949886 572.0
52284.0 527.0 500 122.44783618128317 572.0
52306.0 345.0 0 122.69938650306749 572.0
52329.0 327.0 0 122.44884620747351 572.0
52351.0 326.0 0 122.19830591187953 572.0
52374.0 323.0 0 121.94776561628555 572.0
52396.0 329.0 0 121.69722532069159 572.0
52418.0 263.0 0 121.44668502509761 571.0
52440.0 260.0 0 121.19614472950363 571.0
52463.0 197.0 0 120.94560443390965 571.0
52486.0 208.0 0 120.69506413831567 571.0
52508.0 191.0 0 120.4445238427217 571.0
52530.0 208.0 0 120.19398354712771 571.0
52552.0 212.0 0 119.94344325153375 571.0
52575.0 248.0 0 119.69290295593977 570.0
52597.0 283.0 0 119.4423626603458 570.0
52620.0 299.0 0 119.19182236475181 570.0
52641.0 276.0 0 118.94128206915784 570.0
52664.0 249.0 0 118.69074177356386 570.0
52686.0 226.0 0 118.44020147796988 570.0
52709.0 232.0 0 118.1896611823759 570.0
52731.0 221.0 0 117.93912088678194 570.0
52753.0 221.0 0 117.68858059118796 570.0
52796.0 516.0 500 117.43804029559398 570.0
52818.0 346.0 0 117.1875 570.0
52840.0 320.0 0 144.67389396067415 570.0
52862.0 327.0 0 172.1602879213483 570.0
52885.0 324.0 0 199.64668188202248 570.0
52907.0 327.0 0 227.13307584269663 570.0
52930.0 360.0 0 254.61946980337078 571.0
52951.0 335.0 0 282.10586376404495 571.0
52974.0 446.0 500 309.5922577247191 571.0
52996.0 549.0 0 337.07865168539325 571.0
53019.0 558.0 0 326.03786210165333 571.0
53042.0 533.0 0 314.9970725179134 571.0
53063.0 463.0 0 303.9562829341735 571.0
53086.0 417.0 0 292.91549335043356 572.0
53108.0 391.0 0 281.87470376669364 572.0
53131.0 377.0 0 270.83391418295366 572.0
53153.0 394.0 0 259.7931245992138 572.0
53175.0 417.0 0 248.75233501547382 572.0
53197.0 455.0 0 237.7115454317339 572.0
53220.0 447.0 0 226.67075584799397 572.0
53242.0 447.0 0 215.62996626425405 573.0
53284.0 526.0 500 204.58917668051413 572.0
53307.0 336.0 0 193.5483870967742 572.0
53329.0 322.0 0 220.49370395374095 571.0
53351.0 326.0 0 247.4390208107077 571.0
53373.0 330.0 0 274.38433766767446 571.0
53396.0 334.0 0 301.32965452464117 570.0
53418.0 325.0 0 328.27497138160794 570.0
53441.0 365.0 500 355.22028823857465 570.0
53462.0 353.0 0 382.1656050955414 569.0
53485.0 312.0 0 412.87534121929025 569.0
53507.0 298.0 0 443.58507734303913 569.0
53530.0 281.0 0 474.29481346678796 568.0
53553.0 365.0 500 505.00454959053684 568.0
53574.0 414.0 0 535.7142857142857 568.0
53597.0 405.0 0 506.93624557260915 568.0
53619.0 301.0 0 478.15820543093264 567.0
53642.0 285.0 0 449.3801652892562 567.0
53664.0 284.0 0 420.60212514757967 567.0
53687.0 295.0 0 391.82408500590316 566.0
53708.0 296.0 0 363.0460448642267 566.0
53731.0 316.0 0 334.26800472255013 566.0
53753.0 316.0 0 305.4899645808737 566.0
53795.0 536.0 500 276.71192443919716 566.0
53818.0 340.0 0 247.93388429752065 567.0
53840.0 328.0 0 243.87309274396708 567.0
53863.0 327.0 0 239.8123011904135 567.0
53884.0 334.0 0 235.75150963685994 567.0
53907.0 336.0 0 231.6907180833064 568.0
53929.0 342.0 0 227.62992652975282 568.0
53952.0 351.0 0 223.56913497619925 568.0
53974.0 352.0 0 219.50834342264568 569.0
53996.0 386.0 0 215.4475518690921 569.0
54018.0 379.0 0 211.38676031553854 569.0
54041.0 330.0 0 207.325968761985 570.0
54064.0 317.0 0 203.2651772084314 570.0
54086.0 291.0 0 199.20438565487785 570.0
54109.0 385.0 500 195.14359410132428 571.0
54130.0 380.0 0 191.0828025477707 571.0
54153.0 363.0 0 212.48655802795932 571.0
54175.0 314.0 0 233.89031350814793 572.0
54198.0 304.0 0 255.2940689883365 572.0
54220.0 318.0 0 276.69782446852514 572.0
54242.0 318.0 0 298.1015799487137 573.0
54285.0 538.0 500 319.5053354289023 573.0
54306.0 343.0 0 340.90909090909093 573.0
54329.0 333.0 0 330.16804707011136 573.0
54351.0 328.0 0 319.4270032311318 573.0
54374.0 323.0 0 308.6859593921522 573.0
54396.0 324.0 0 297.94491555317256 573.0
54418.0 326.0 0 287.203871714193 573.0
54440.0 338.0 0 276.4628278752134 573.0
54463.0 327.0 0 265.7217840362338 573.0
54485.0 321.0 0 254.98074019725425 573.0
54508.0 321.0 0 244.23969635827467 573.0
54529.0 343.0 0 233.4986525192951 573.0
54552.0 378.0 0 222.75760868031549 573.0
54574.0 341.0 0 212.0165648413359 573.0
54597.0 324.0 0 201.27552100235633 573.0
54620.0 323.0 0 190.53447716337675 573.0
54642.0 315.0 0 179.79343332439717 573.0
54664.0 394.0 500 169.05238948541756 573.0
54686.0 382.0 0 158.31134564643799 573.0
54709.0 328.0 0 217.5581674262413 573.0
54731.0 310.0 0 276.80498920604464 573.0
54754.0 310.0 0 336.05181098584796 574.0
54796.0 529.0 500 395.2986327656513 574.0
54818.0 339.0 0 454.54545454545456 574.0
54841.0 339.0 0 438.75523383720105 574.0
54862.0 324.0 0 422.9650131289476 574.0
54885.0 330.0 0 407.1747924206941 574.0
54907.0 346.0 0 391.38457171244056 574.0
54930.0 352.0 0 375.5943510041871 574.0
54952.0 342.0 0 359.8041302959336 574.0
54974.0 353.0 0 344.01390958768013 574.0
54996.0 354.0 0 328.2236888794266 575.0
55019.0 351.0 0 312.4334681711731 575.0
55041.0 341.0 0 296.6432474629196 575.0
55064.0 345.0 0 280.8530267546661 575.0
55085.0 394.0 0 265.0628060464126 575.0
55108.0 419.0 0 249.2725853381591 575.0
55131.0 383.0 0 233.48236462990565 575.0
55153.0 356.0 0 217.69214392165213 575.0
55176.0 346.0 0 201.90192321339865 575.0
55197.0 359.0 0 186.11170250514516 575.0
55220.0 475.0 0 170.32148179689165 575.0
55242.0 475.0 0 154.53126108863813 576.0
55284.0 531.0 500 138.74104038038467 575.0
55307.0 347.0 0 122.95081967213115 574.0
55329.0 326.0 0 122.68885059612518 574.0
55352.0 335.0 0 122.42688152011922 574.0
55374.0 335.0 0 122.16491244411327 573.0
55396.0 349.0 0 121.9029433681073 573.0
55418.0 374.0 0 121.64097429210133 573.0
55441.0 352.0 0 121.37900521609538 572.0
55463.0 319.0 0 121.11703614008943 572.0
55486.0 299.0 0 120.85506706408346 572.0
55507.0 283.0 0 120.59309798807749 571.0
55530.0 285.0 0 120.33112891207153 571.0
55552.0 274.0 0 120.06915983606558 571.0
55575.0 272.0 0 119.80719076005961 570.0
55597.0 295.0 0 119.54522168405364 570.0
55619.0 297.0 0 119.28325260804769 569.0
55641.0 329.0 0 119.02128353204174 569.0
55664.0 322.0 0 118.75931445603577 569.0
55687.0 292.0 0 118.4973453800298 568.0
55709.0 278.0 0 118.23537630402384 568.0
55731.0 271.0 0 117.97340722801789 568.0
55753.0 271.0 0 117.71143815201192 568.0
55796.0 520.0 500 117.44946907600595 568.0
55818.0 342.0 0 117.1875 568.0
55840.0 328.0 0 117.44997078586036 568.0
55863.0 333.0 0 117.71244157172072 568.0
55885.0 337.0 0 117.97491235758108 568.0
55908.0 343.0 0 118.23738314344142 568.0
55929.0 356.0 0 118.49985392930178 568.0
55952.0 390.0 0 118.76232471516214 568.0
55974.0 419.0 0 119.0247955010225 568.0
55997.0 412.0 0 119.28726628688285 568.0
56019.0 369.0 0 119.54973707274321 568.0
56041.0 321.0 0 119.81220785860357 568.0
56063.0 318.0 0 120.07467864446392 568.0
56086.0 333.0 0 120.33714943032427 568.0
56108.0 325.0 0 120.59962021618463 568.0
56131.0 306.0 0 120.86209100204499 568.0
56152.0 323.0 0 121.12456178790535 568.0
56175.0 342.0 0 121.38703257376571 568.0
56198.0 356.0 0 121.64950335962607 568.0
56220.0 322.0 0 121.91197414548641 568.0
56243.0 322.0 0 122.17444493134677 568.0
56285.0 532.0 500 122.43691571720713 568.0
56307.0 343.0 0 122.69938650306749 568.0
56330.0 330.0 0 122.45927028681882 568.0
56351.0 330.0 0 122.21915407057016 568.0
56374.0 339.0 0 121.97903785432149 568.0
56396.0 339.0 0 121.73892163807282 568.0
56419.0 329.0 0 121.49880542182416 568.0
56441.0 338.0 0 121.25868920557551 568.0
56463.0 350.0 0 121.01857298932684 568.0
56485.0 378.0 0 120.77845677307818 568.0
56508.0 410.0 0 120.53834055682951 568.0
56530.0 391.0 0 120.29822434058084 568.0
56553.0 353.0 0 120.05810812433218 568.0
56574.0 308.0 0 119.81799190808351 568.0
56597.0 304.0 0 119.57787569183485 568.0
56619.0 320.0 0 119.33775947558618 568.0
56642.0 313.0 0 119.09764325933752 568.0
56664.0 299.0 0 118.85752704308885 568.0
56686.0 300.0 0 118.6174108268402 568.0
56708.0 314.0 0 118.37729461059153 568.0
56731.0 347.0 0 118.13717839434287 568.0
56754.0 347.0 0 117.8970621780942 568.0
56796.0 514.0 500 117.65694596184554 568.0
56818.0 348.0 0 117.41682974559687 568.0
56841.0 324.0 0 117.6683800673812 568.0
56863.0 329.0 0 117.9199303891655 568.0
56885.0 335.0 0 118.17148071094982 568.0
56907.0 348.0 0 118.42303103273413 568.0
56930.0 355.0 0 118.67458135451845 568.0
56952.0 356.0 0 118.92613167630276 568.0
56975.0 380.0 0 119.17768199808708 568.0
56996.0 385.0 0 119.42923231987139 569.0
57019.0 413.0 0 119.68078264165571 569.0
57041.0 463.0 0 119.93233296344002 569.0
57064.0 510.0 0 120.18388328522434 569.0
57086.0 507.0 0 120.43543360700865 569.0
57108.0 440.0 0 120.68698392879297 569.0
57130.0 369.0 0 120.93853425057728 569.0
57153.0 352.0 0 121.1900845723616 569.0
57175.0 323.0 0 121.4416348941459 569.0
57198.0 330.0 0 121.69318521593023 569.0
57219.0 325.0 0 121.94473553771454 569.0
57242.0 325.0 0 122.19628585949886 570.0
57285.0 531.0 500 122.44783618128317 570.0
57307.0 328.0 0 122.69938650306749 570.0
57329.0 332.0 0 122.45927028681882 570.0
57352.0 333.0 0 122.21915407057016 570.0
57374.0 329.0 0 121.97903785432149 570.0
57397.0 310.0 0 121.73892163807282 570.0
57418.0 260.0 0 121.49880542182416 570.0
57441.0 250.0 0 121.25868920557551 570.0
57463.0 243.0 0 121.01857298932684 570.0
57486.0 261.0 0 120.77845677307818 570.0
57508.0 271.0 0 120.53834055682951 570.0
57530.0 287.0 0 120.29822434058084 570.0
57552.0 296.0 0 120.05810812433218 570.0
57575.0 310.0 0 119.81799190808351 570.0
57597.0 302.0 0 119.57787569183485 570.0
57620.0 265.0 0 119.33775947558618 570.0
57641.0 248.0 0 119.09764325933752 570.0
57664.0 251.0 0 118.85752704308885 570.0
57686.0 247.0 0 118.6174108268402 570.0
57709.0 243.0 0 118.37729461059153 570.0
57731.0 259.0 0 118.13717839434287 570.0
57753.0 259.0 0 117.8970621780942 571.0
57796.0 532.0 500 117.65694596184554 571.0
57819.0 346.0 0 117.41682974559687 571.0
57840.0 331.0 0 117.68035307543184 571.0
57863.0 334.0 0 117.9438764052668 571.0
57885.0 336.0 0 118.20739973510177 572.0
57908.0 305.0 0 118.47092306493673 572.0
57930.0 246.0 0 118.7344463947717 572.0
57952.0 214.0 0 118.99796972460666 572.0
57974.0 220.0 0 119.26149305444163 572.0
57997.0 224.0 0 119.5250163842766 573.0
58019.0 217.0 0 119.78853971411156 573.0
58042.0 243.0 0 120.05206304394653 573.0
58063.0 276.0 0 120.31558637378149 573.0
58086.0 285.0 0 120.57910970361645 573.0
58108.0 258.0 0 120.84263303345142 573.0
58131.0 234.0 0 121.10615636328639 574.0
58153.0 195.0 0 121.36967969312136 574.0
58175.0 188.0 0 121.63320302295632 574.0
58197.0 199.0 0 121.89672635279129 574.0
58220.0 197.0 0 122.16024968262624 574.0
58242.0 197.0 0 122.42377301246121 575.0
58284.0 518.0 500 122.68729634229618 574.0
58307.0 344.0 0 122.95081967213115 574.0
58329.0 336.0 0 122.69927467547049 573.0
58352.0 332.0 0 122.44772967880985 573.0
58374.0 338.0 0 122.1961846821492 573.0
58396.0 322.0 0 121.94463968548855 573.0
58419.0 284.0 0 121.6930946888279 572.0
58441.0 232.0 0 121.44154969216726 572.0
58464.0 185.0 0 121.1900046955066 572.0
58485.0 175.0 0 120.93845969884596 572.0
58508.0 181.0 0 120.6869147021853 571.0
58530.0 170.0 0 120.43536970552466 571.0
58553.0 202.0 0 120.18382470886401 571.0
58575.0 212.0 0 119.93227971220335 571.0
58597.0 233.0 0 119.68073471554271 570.0
58619.0 212.0 0 119.42918971888206 570.0
58642.0 187.0 0 119.17764472222142 570.0
58664.0 175.0 0 118.92609972556076 569.0
58687.0 166.0 0 118.67455472890012 569.0
58708.0 168.0 0 118.42300973223946 569.0
58731.0 168.0 0 118.17146473557882 569.0
58753.0 168.0 0 117.91991973891817 569.0
58795.0 524.0 500 117.66837474225753 569.0
58818.0 340.0 0 117.41682974559687 569.0
58840.0 328.0 0 122.67868494575214 569.0
58863.0 324.0 0 127.94054014590742 569.0
58886.0 331.0 0 133.2023953460627 569.0
58907.0 360.0 0 138.46425054621795 569.0
58930.0 344.0 0 143.72610574637324 569.0
58952.0 354.0 0 148.98796094652852 569.0
58975.0 296.0 0 154.2498161466838 569.0
58997.0 316.0 0 159.51167134683908 569.0
59019.0 309.0 0 164.77352654699433 569.0
59041.0 307.0 0 170.03538174714961 569.0
59064.0 226.0 0 175.2972369473049 569.0
59086.0 218.0 0 180.55909214746015 569.0
59109.0 274.0 500 185.82094734761546 569.0
59130.0 305.0 0 191.0828025477707 569.0
59153.0 311.0 0 212.48655802795932 569.0
59175.0 314.0 0 233.89031350814793 569.0
59198.0 313.0 0 255.2940689883365 569.0
59220.0 299.0 0 276.69782446852514 569.0
59242.0 299.0 0 298.1015799487137 570.0
59285.0 533.0 500 319.5053354289023 570.0
59307.0 336.0 0 340.90909090909093 570.0
59329.0 336.0 0 330.75035176529576 571.0
59351.0 331.0 0 320.5916126215006 571.0
59374.0 325.0 0 310.43287347770536 571.0
59396.0 335.0 0 300.2741343339102 572.0
59419.0 346.0 0 290.115395190115 572.0
59441.0 446.0 0 279.95665604631984 572.0
59463.0 479.0 0 269.79791690252466 573.0
59486.0 453.0 0 259.6391777587295 573.0
59508.0 381.0 0 249.48043861493426 573.0
59531.0 344.0 0 239.32169947113908 574.0
59552.0 361.0 0 229.1629603273439 574.0
59575.0 378.0 0 219.00422118354874 574.0
59597.0 387.0 0 208.84548203975353 574.0
59620.0 444.0 0 198.68674289595836 575.0
59642.0 504.0 0 188.5280037521632 575.0
59664.0 536.0 0 178.36926460836798 575.0
59686.0 493.0 0 168.2105254645728 576.0
59709.0 450.0 0 158.0517863207776 576.0
59731.0 411.0 0 147.89304717698244 576.0
59754.0 411.0 0 137.73430803318726 577.0
59796.0 532.0 500 127.57556888939206 577.0
59818.0 343.0 0 117.41682974559687 577.0
59841.0 319.0 0 117.68035307543184 577.0
59862.0 318.0 0 117.9438764052668 577.0
59885.0 323.0 0 118.20739973510177 577.0
59907.0 321.0 0 118.47092306493673 577.0
59930.0 325.0 0 118.7344463947717 578.0
59953.0 330.0 0 118.99796972460666 578.0
59974.0 398.0 0 119.26149305444163 578.0
59997.0 441.0 0 119.5250163842766 578.0
60019.0 364.0 0 119.78853971411156 578.0
60042.0 324.0 0 120.05206304394653 578.0
60064.0 302.0 0 120.31558637378149 578.0
60086.0 320.0 0 120.57910970361645 579.0
60108.0 339.0 0 120.84263303345142 579.0
60131.0 361.0 0 121.10615636328639 579.0
60153.0 419.0 0 121.36967969312136 579.0
60176.0 474.0 0 121.63320302295632 579.0
60197.0 500.0 0 121.89672635279129 579.0
60220.0 460.0 0 122.16024968262624 579.0
60242.0 460.0 0 122.42377301246121 580.0
60284.0 530.0 500 122.68729634229618 579.0
60307.0 334.0 0 122.95081967213115 579.0
60329.0 323.0 0 137.44145199063232 579.0
60352.0 318.0 0 151.93208430913347 579.0
60374.0 331.0 0 166.42271662763466 579.0
60396.0 309.0 0 180.9133489461358 579.0
60418.0 257.0 0 195.40398126463697 579.0
60441.0 231.0 0 209.89461358313815 579.0
60464.0 228.0 0 224.3852459016393 579.0
60486.0 209.0 0 238.8758782201405 579.0
60508.0 321.0 500 253.36651053864165 579.0
60530.0 324.0 0 267.85714285714283 579.0
60553.0 276.0 0 262.89682539682536 579.0
60575.0 225.0 0 257.9365079365079 579.0
60598.0 238.0 0 252.97619047619045 579.0
60619.0 249.0 0 248.015873015873 579.0
60642.0 259.0 0 243.05555555555554 579.0
60664.0 264.0 0 238.09523809523807 579.0
60687.0 286.0 0 233.13492063492063 579.0
60709.0 313.0 0 228.1746031746032 579.0
60731.0 301.0 0 223.21428571428572 579.0
60753.0 301.0 0 218.25396825396825 578.0
60796.0 522.0 500 213.2936507936508 578.0
60818.0 344.0 0 208.33333333333334 578.0
60840.0 334.0 0 211.6573902288188 577.0
60863.0 318.0 0 214.98144712430428 577.0
60885.0 323.0 0 218.30550401978974 577.0
60908.0 329.0 0 221.6295609152752 577.0
60929.0 343.0 0 224.95361781076068 576.0
60952.0 324.0 0 228.27767470624613 576.0
60974.0 309.0 0 231.60173160173161 576.0
60997.0 291.0 0 234.92578849721707 575.0
61020.0 276.0 0 238.24984539270253 575.0
61041.0 373.0 500 241.57390228818798 575.0
61064.0 359.0 0 244.89795918367346 575.0
61086.0 364.0 0 244.99832719973236 574.0
61109.0 304.0 0 245.09869521579122 574.0
61131.0 294.0 0 245.19906323185012 574.0
61153.0 300.0 0 245.29943124790898 574.0
61175.0 316.0 0 245.39979926396788 573.0
61198.0 349.0 0 245.50016728002677 573.0
61220.0 378.0 0 245.60053529608564 573.0
61243.0 378.0 0 245.70090331214453 573.0
61285.0 517.0 500 245.8012713282034 573.0
61307.0 335.0 0 245.9016393442623 573.0
61330.0 324.0 0 242.9012479888681 573.0
61351.0 328.0 0 239.90085663347392 573.0
61374.0 333.0 0 236.90046527807974 573.0
61396.0 338.0 0 233.90007392268558 573.0
61419.0 362.0 0 230.8996825672914 574.0
61441.0 364.0 0 227.8992912118972 574.0
61463.0 398.0 0 224.89889985650302 574.0
61485.0 422.0 0 221.89850850110884 574.0
61508.0 407.0 0 218.89811714571465 574.0
61531.0 389.0 0 215.89772579032046 574.0
61553.0 378.0 0 212.8973344349263 574.0
61575.0 449.0 500 209.89694307953212 574.0
61597.0 558.0 0 206.89655172413794 575.0
61620.0 561.0 0 203.86277282829008 575.0
61642.0 560.0 0 200.82899393244222 575.0
61665.0 557.0 0 197.79521503659436 575.0
61686.0 555.0 0 194.7614361407465 575.0
61709.0 559.0 0 191.72765724489864 575.0
61731.0 562.0 0 188.69387834905078 575.0
61754.0 562.0 0 185.66009945320292 575.0
61796.0 554.0 0 182.62632055735503 575.0
61818.0 335.0 0 179.5925416615072 575.0
61841.0 317.0 0 176.5587627656593 575.0
61863.0 317.0 0 173.52498386981148 575.0
61885.0 317.0 0 170.4912049739636 575.0
61907.0 331.0 0 167.45742607811573 575.0
61930.0 353.0 0 164.42364718226787 575.0
61952.0 353.0 0 161.38986828642 575.0
61975.0 370.0 0 158.35608939057215 575.0
61996.0 417.0 0 155.3223104947243 574.0
62019.0 480.0 0 152.28853159887643 574.0
62041.0 459.0 0 149.25475270302857 574.0
62064.0 458.0 0 146.2209738071807 574.0
62087.0 467.0 0 143.18719491133285 574.0
62108.0 480.0 0 140.153416015485 574.0
62131.0 560.0 0 137.11963711963713 574.0
62153.0 555.0 0 134.08585822378927 574.0
62176.0 553.0 0 131.05207932794139 574.0
62198.0 531.0 0 128.01830043209355 574.0
62220.0 499.0 0 124.98452153624567 574.0
62242.0 499.0 0 121.95074264039782 574.0
62285.0 536.0 0 118.91696374454995 573.0
62307.0 330.0 0 115.8831848487021 572.0
62329.0 319.0 0 112.84940595285424 572.0
62352.0 317.0 0 109.81562705700637 572.0
62374.0 313.0 0 106.78184816115852 571.0
62397.0 318.0 0 103.74806926531065 571.0
62418.0 332.0 0 100.71429036946277 570.0
62441.0 319.0 0 97.68051147361493 570.0
62463.0 297.0 0 94.64673257776705 570.0
62486.0 321.0 0 91.61295368191921 569.0
62508.0 324.0 0 88.57917478607135 569.0
62530.0 360.0 0 85.54539589022347 568.0
62552.0 353.0 0 82.51161699437563 568.0
62575.0 316.0 0 79.47783809852776 568.0
62598.0 315.0 0 76.44405920267991 567.0
62620.0 319.0 0 73.41028030683205 567.0
62642.0 368.0 0 70.37650141098416 566.0
62664.0 381.0 0 67.34272251513633 566.0
62687.0 389.0 0 64.30894361928844 565.0
62709.0 319.0 0 61.27516472344058 565.0
62732.0 309.0 0 58.24138582759272 565.0
62753.0 309.0 0 55.20760693174486 565.0
62796.0 536.0 500 52.173828035897 565.0
62819.0 334.0 0 49.14004914004914 565.0
62840.0 319.0 0 52.642874728764305 565.0
62863.0 324.0 0 56.14570031747946 565.0
62885.0 330.0 0 59.64852590619462 565.0
62908.0 335.0 0 63.151351494909775 565.0
62930.0 330.0 0 66.65417708362494 566.0
62952.0 340.0 0 70.1570026723401 566.0
62974.0 353.0 0 73.65982826105525 566.0
62997.0 327.0 0 77.16265384977041 566.0
63019.0 340.0 0 80.66547943848558 566.0
63042.0 360.0 0 84.16830502720073 566.0
63063.0 380.0 0 87.6711306159159 566.0
63086.0 341.0 0 91.17395620463105 567.0
63108.0 334.0 0 94.67678179334621 567.0
63131.0 335.0 0 98.17960738206136 567.0
63154.0 343.0 0 101.68243297077653 567.0
63175.0 444.0 0 105.18525855949169 567.0
63198.0 445.0 0 108.68808414820685 567.0
63220.0 416.0 0 112.19090973692201 567.0
63243.0 416.0 0 115.69373532563716 567.0
63285.0 528.0 500 119.19656091435232 567.0
63307.0 333.0 0 122.69938650306749 567.0
63330.0 322.0 0 123.68938900091995 567.0
63352.0 327.0 0 124.6793914987724 567.0
63374.0 321.0 0 125.66939399662485 567.0
63396.0 348.0 0 126.6593964944773 567.0
63419.0 337.0 0 127.64939899232976 567.0
63441.0 307.0 0 128.63940149018222 567.0
63464.0 303.0 0 129.62940398803468 567.0
63485.0 306.0 0 130.61940648588714 567.0
63508.0 319.0 0 131.6094089837396 566.0
63530.0 314.0 0 132.59941148159206 566.0
63553.0 327.0 0 133.58941397944452 566.0
63575.0 361.0 0 134.57941647729695 566.0
63597.0 384.0 0 135.5694189751494 566.0
63619.0 338.0 0 136.55942147300186 566.0
63642.0 322.0 0 137.54942397085432 566.0
63665.0 324.0 0 138.53942646870678 566.0
63687.0 318.0 0 139.52942896655924 566.0
63709.0 414.0 500 140.5194314644117 566.0
63731.0 434.0 0 141.50943396226415 566.0
63754.0 434.0 0 324.22468011277385 565.0
63796.0 533.0 500 506.9399262632835 565.0
63818.0 336.0 0 689.6551724137931 565.0
63841.0 329.0 0 662.6572778466157 565.0
63863.0 326.0 0 635.6593832794383 565.0
63886.0 328.0 0 608.661488712261 565.0
63907.0 345.0 0 581.6635941450835 565.0
63930.0 322.0 0 554.665699577906 565.0
63952.0 286.0 0 527.6678050107287 565.0
63975.0 272.0 0 500.66991044355126 565.0
63997.0 261.0 0 473.67201587637385 564.0
64019.0 261.0 0 446.67412130919644 564.0
64041.0 280.0 0 419.676226742019 564.0
64064.0 268.0 0 392.67833217484156 564.0
64086.0 283.0 0 365.6804376076642 564.0
64109.0 289.0 0 338.68254304048673 564.0
64130.0 312.0 0 311.6846484733094 564.0
64153.0 282.0 0 284.6867539061319 564.0
64176.0 256.0 0 257.68885933895456 564.0
64198.0 249.0 0 230.6909647717771 564.0
64221.0 234.0 0 203.69307020459974 564.0
64242.0 234.0 0 176.69517563742227 564.0
64285.0 535.0 500 149.6972810702449 564.0
64308.0 339.0 0 122.69938650306749 564.0
64329.0 332.0 0 122.45927028681882 564.0
64352.0 328.0 0 122.21915407057016 564.0
64374.0 337.0 0 121.97903785432149 564.0
64397.0 317.0 0 121.73892163807282 564.0
64419.0 298.0 0 121.49880542182416 564.0
64441.0 302.0 0 121.25868920557551 564.0
64463.0 264.0 0 121.01857298932684 564.0
64486.0 215.0 0 120.77845677307818 564.0
64508.0 168.0 0 120.53834055682951 564.0
64531.0 179.0 0 120.29822434058084 564.0
64552.0 172.0 0 120.05810812433218 564.0
64575.0 175.0 0 119.81799190808351 564.0
64597.0 168.0 0 119.57787569183485 564.0
64620.0 181.0 0 119.33775947558618 564.0
64642.0 178.0 0 119.09764325933752 564.0
64664.0 210.0 0 118.85752704308885 564.0
64686.0 181.0 0 118.6174108268402 564.0
64709.0 159.0 0 118.37729461059153 564.0
64732.0 162.0 0 118.13717839434287 564.0
64754.0 162.0 0 117.8970621780942 565.0
64796.0 521.0 500 117.65694596184554 565.0
64819.0 349.0 0 117.41682974559687 566.0
64841.0 338.0 0 144.87455748807142 566.0
64863.0 332.0 0 172.33228523054595 566.0
64885.0 328.0 0 199.7900129730205 567.0
64908.0 303.0 0 227.24774071549507 567.0
64930.0 270.0 0 254.70546845796963 567.0
64953.0 262.0 0 282.16319620044413 567.0
64974.0 303.0 500 309.6209239429187 568.0
64997.0 301.0 0 337.07865168539325 568.0
65019.0 278.0 0 330.27661611326647 568.0
65042.0 239.0 0 323.4745805411397 569.0
65064.0 251.0 0 316.67254496901296 569.0
65086.0 230.0 0 309.8705093968862 569.0
65108.0 229.0 0 303.0684738247594 570.0
65131.0 236.0 0 296.2664382526326 570.0
65153.0 268.0 0 289.4644026805058 570.0
65176.0 241.0 0 282.66236710837904 571.0
65197.0 296.0 500 275.8603315362523 571.0
65220.0 287.0 0 269.05829596412553 571.0
65243.0 287.0 0 409.25725478068136 572.0
65284.0 523.0 500 549.4562135972373 572.0
65307.0 340.0 0 689.6551724137931 572.0
65330.0 338.0 0 663.6339145768026 572.0
65352.0 337.0 0 637.612656739812 572.0
65375.0 336.0 0 611.5913989028213 572.0
65396.0 341.0 0 585.5701410658307 572.0
65419.0 420.0 0 559.5488832288402 573.0
65441.0 370.0 0 533.5276253918496 573.0
65464.0 388.0 0 507.50636755485897 573.0
65486.0 398.0 0 481.48510971786834 573.0
65508.0 479.0 0 455.46385188087777 573.0
65530.0 553.0 0 429.4425940438872 573.0
65553.0 547.0 0 403.42133620689657 573.0
65575.0 504.0 0 377.400078369906 573.0
65598.0 439.0 0 351.37882053291537 574.0
65619.0 424.0 0 325.3575626959248 574.0
65642.0 375.0 0 299.3363048589342 574.0
65664.0 349.0 0 273.3150470219436 574.0
65687.0 367.0 0 247.29378918495297 574.0
65709.0 309.0 0 221.27253134796234 574.0
65731.0 286.0 0 195.25127351097177 574.0
65753.0 286.0 0 169.23001567398126 575.0
65796.0 525.0 500 143.20875783699057 575.0
65818.0 341.0 0 117.1875 575.0
65841.0 330.0 0 172.28311567164178 575.0
65863.0 329.0 0 227.37873134328356 575.0
65886.0 332.0 0 282.47434701492534 575.0
65908.0 332.0 0 337.5699626865671 575.0
65930.0 459.0 500 392.66557835820896 575.0
65952.0 378.0 0 447.76119402985074 575.0
65975.0 377.0 0 466.3170633319887 575.0
65997.0 405.0 0 484.87293263412664 575.0
66020.0 384.0 0 503.4288019362646 575.0
66041.0 431.0 500 521.9846712384026 575.0
66064.0 439.0 0 540.5405405405405 575.0
66086.0 509.0 0 511.0766504209127 575.0
66109.0 430.0 0 481.6127603012849 575.0
66131.0 361.0 0 452.14887018165706 575.0
66153.0 288.0 0 422.68498006202924 575.0
66175.0 291.0 0 393.2210899424014 575.0
66198.0 310.0 0 363.7571998227736 575.0
66220.0 295.0 0 334.2933097031458 575.0
66243.0 295.0 0 304.82941958351796 575.0
66285.0 533.0 500 275.36552946389014 575.0
66307.0 331.0 0 245.9016393442623 575.0
66330.0 329.0 0 248.2173050062486 574.0
66352.0 320.0 0 250.53297066823495 574.0
66374.0 325.0 0 252.84863633022127 574.0
66397.0 323.0 0 255.16430199220758 574.0
66419.0 287.0 0 257.4799676541939 573.0
66442.0 224.0 0 259.7956333161802 573.0
66463.0 228.0 0 262.1112989781666 573.0
66486.0 201.0 0 264.4269646401529 573.0
66508.0 244.0 500 266.7426303021392 572.0
66531.0 244.0 0 269.05829596412553 572.0
66553.0 281.0 0 263.99788241155954 572.0
66575.0 313.0 0 258.9374688589935 572.0
66597.0 320.0 0 253.87705530642748 571.0
66620.0 308.0 0 248.81664175386146 571.0
66642.0 340.0 0 243.75622820129544 571.0
66665.0 269.0 0 238.69581464872942 570.0
66686.0 271.0 0 233.63540109616343 570.0
66709.0 283.0 0 228.57498754359742 570.0
66731.0 302.0 0 223.5145739910314 570.0
66754.0 302.0 0 218.45416043846538 570.0
66796.0 537.0 500 213.39374688589936 570.0
66818.0 342.0 0 208.33333333333334 571.0
66841.0 325.0 0 209.62893864013267 571.0
66864.0 327.0 0 210.924543946932 572.0
66885.0 327.0 0 212.22014925373134 572.0
66908.0 332.0 0 213.5157545605307 572.0
66930.0 460.0 0 214.81135986733003 573.0
66953.0 555.0 0 216.10696517412936 573.0
66975.0 448.0 0 217.4025704809287 574.0
66997.0 343.0 0 218.69817578772802 574.0
67019.0 320.0 0 219.99378109452738 574.0
67042.0 300.0 0 221.2893864013267 575.0
67064.0 376.0 500 222.58499170812604 575.0
67087.0 433.0 0 223.88059701492537 576.0
67108.0 555.0 0 219.0704508545356 576.0
67131.0 555.0 0 214.26030469414584 577.0
67153.0 561.0 0 209.45015853375608 577.0
67176.0 557.0 0 204.64001237336632 577.0
67198.0 557.0 0 199.82986621297655 578.0
67221.0 554.0 0 195.01972005258682 578.0
67242.0 554.0 0 190.20957389219706 579.0
67285.0 542.0 0 185.3994277318073 578.0
67307.0 322.0 0 180.58928157141753 577.0
67329.0 310.0 0 175.77913541102777 577.0
67352.0 314.0 0 170.968989250638 576.0
67374.0 318.0 0 166.15884309024824 576.0
67397.0 325.0 0 161.34869692985848 575.0
67419.0 307.0 0 156.5385507694687 575.0
67441.0 336.0 0 151.72840460907895 575.0
67464.0 450.0 0 146.9182584486892 574.0
67486.0 516.0 0 142.10811228829942 574.0
67509.0 495.0 0 137.29796612790966 573.0
67530.0 465.0 0 132.4878199675199 573.0
67553.0 415.0 0 127.67767380713015 572.0
67575.0 410.0 0 122.8675276467404 572.0
67598.0 410.0 0 118.05738148635062 571.0
67620.0 400.0 0 113.24723532596086 571.0
67643.0 444.0 500 108.43708916557111 570.0
67664.0 526.0 0 103.62694300518135 570.0
67687.0 539.0 0 151.71526296183413 570.0
67709.0 536.0 0 199.80358291848694 569.0
67732.0 485.0 0 247.89190287513972 569.0
67754.0 485.0 0 295.9802228317925 568.0
67796.0 535.0 500 344.0685427884453 568.0
67819.0 326.0 0 392.15686274509807 568.0
67841.0 323.0 0 381.1995043543843 568.0
67863.0 321.0 0 370.24214596367057 568.0
67885.0 319.0 0 359.2847875729568 568.0
67908.0 336.0 0 348.32742918224307 568.0
67931.0 389.0 0 337.3700707915293 568.0
67953.0 452.0 0 326.4127124008155 568.0
67975.0 495.0 0 315.45535401010176 568.0
67997.0 553.0 0 304.497995619388 567.0
68020.0 559.0 0 293.54063722867426 567.0
68042.0 561.0 0 282.5832788379605 567.0
68065.0 559.0 0 271.62592044724676 567.0
68086.0 555.0 0 260.668562056533 567.0
68109.0 553.0 0 249.71120366581923 567.0
68131.0 558.0 0 238.75384527510548 567.0
68154.0 559.0 0 227.7964868843917 567.0
68176.0 559.0 0 216.83912849367798 567.0
68198.0 556.0 0 205.8817701029642 567.0
68220.0 557.0 0 194.92441171225045 567.0
68243.0 557.0 0 183.9670533215367 566.0
68285.0 551.0 0 173.00969493082295 566.0
68307.0 321.0 0 162.05233654010917 566.0
68330.0 311.0 0 151.09497814939544 566.0
68352.0 309.0 0 140.13761975868167 566.0
68375.0 315.0 0 129.18026136796794 566.0
68396.0 304.0 0 118.22290297725414 566.0
68419.0 367.0 500 107.26554458654039 566.0
68441.0 349.0 0 96.30818619582665 566.0
68464.0 257.0 0 100.2095594792224 566.0
68487.0 216.0 0 104.11093276261816 566.0
68508.0 154.0 0 108.01230604601392 566.0
68531.0 176.0 0 111.91367932940967 566.0
68553.0 278.0 0 115.81505261280543 566.0
68576.0 288.0 0 119.71642589620117 566.0
68598.0 247.0 0 123.61779917959694 566.0
68620.0 276.0 0 127.51917246299269 566.0
68642.0 292.0 0 131.42054574638846 566.0
68665.0 262.0 0 135.3219190297842 566.0
68687.0 242.0 0 139.22329231317997 566.0
68710.0 240.0 0 143.1246655965757 566.0
68731.0 276.0 0 147.02603887997145 566.0
68754.0 276.0 0 150.92741216336722 566.0
68797.0 523.0 500 154.828785446763 566.0
68818.0 334.0 0 158.73015873015873 566.0
68841.0 325.0 0 162.43526588354175 566.0
68863.0 329.0 0 166.14037303692476 566.0
68886.0 325.0 0 169.8454801903078 566.0
68908.0 330.0 0 173.5505873436908 566.0
68930.0 348.0 0 177.25569449707382 567.0
68952.0 378.0 0 180.96080165045683 567.0
68975.0 452.0 0 184.66590880383984 567.0
68998.0 460.0 0 188.37101595722285 567.0
69020.0 432.0 0 192.07612311060586 567.0
69042.0 411.0 0 195.7812302639889 567.0
69064.0 357.0 0 199.4863374173719 567.0
69087.0 440.0 500 203.19144457075492 568.0
69109.0 487.0 0 206.89655172413794 568.0
69132.0 542.0 0 218.91327063740857 568.0
69153.0 554.0 0 230.9299895506792 568.0
69176.0 556.0 0 242.94670846394985 568.0
69198.0 555.0 0 254.96342737722046 568.0
69221.0 488.0 0 266.9801462904911 568.0
69243.0 488.0 0 278.99686520376173 569.0
69285.0 529.0 500 291.01358411703234 569.0
69308.0 335.0 0 303.030303030303 570.0
69330.0 313.0 0 294.5933269719073 570.0
69352.0 311.0 0 286.1563509135115 571.0
69374.0 319.0 0 277.7193748551158 571.0
69397.0 347.0 0 269.2823987967201 572.0
69419.0 364.0 0 260.8454227383243 572.0
69442.0 388.0 0 252.4084466799286 573.0
69463.0 442.0 0 243.9714706215329 573.0
69486.0 526.0 0 235.53449456313714 573.0
69508.0 554.0 0 227.0975185047414 574.0
69531.0 555.0 0 218.6605424463457 574.0
69554.0 557.0 0 210.22356638794994 575.0
69575.0 560.0 0 201.7865903295542 575.0
69598.0 552.0 0 193.3496142711585 576.0
69620.0 554.0 0 184.91263821276274 576.0
69643.0 554.0 0 176.47566215436703 577.0
69665.0 562.0 0 168.0386860959713 577.0
69687.0 557.0 0 159.60171003757554 577.0
69709.0 503.0 0 151.1647339791798 578.0
69732.0 431.0 0 142.7277579207841 578.0
69754.0 431.0 0 134.29078186238834 578.0
69796.0 523.0 500 125.8538058039926 578.0
69819.0 314.0 0 117.41682974559687 578.0
69841.0 306.0 0 120.55313822169259 578.0
69864.0 310.0 0 123.68944669778833 577.0
69885.0 310.0 0 126.82575517388405 577.0
69908.0 300.0 0 129.96206364997977 577.0
69930.0 255.0 0 133.0983721260755 577.0
69953.0 258.0 0 136.23468060217124 576.0
69975.0 278.0 0 139.37098907826697 576.0
69997.0 280.0 0 142.50729755436268 576.0
70019.0 296.0 0 145.64360603045841 576.0
70042.0 333.0 0 148.77991450655415 576.0
70065.0 310.0 0 151.91622298264986 575.0
70087.0 244.0 0 155.0525314587456 575.0
70109.0 238.0 0 158.18883993484133 575.0
70131.0 228.0 0 161.32514841093706 575.0
70154.0 279.0 500 164.46145688703277 574.0
70176.0 351.0 0 167.5977653631285 574.0
70199.0 340.0 0 224.98730319959373 574.0
70220.0 251.0 0 282.3768410360589 574.0
70243.0 251.0 0 339.7663788725241 573.0
70286.0 515.0 500 397.15591670898937 573.0
70307.0 336.0 0 454.54545454545456 573.0
70330.0 324.0 0 438.06987451476033 573.0
70352.0 334.0 0 421.5942944840661 573.0
70375.0 330.0 0 405.11871445337187 573.0
70397.0 336.0 0 388.64313442267763 573.0
70419.0 338.0 0 372.1675543919834 573.0
