Time	ECG	ECG_Normalized	Heart_Rate	EDA
0.0 336.0 0 0.0 282.0
23.0 540.0 0 0.0 282.0
46.0 564.0 0 2.8708133971291865 283.0
69.0 554.0 0 5.741626794258373 283.0
91.0 558.0 0 8.61244019138756 284.0
113.0 561.0 0 11.483253588516746 284.0
135.0 565.0 0 14.354066985645932 285.0
158.0 562.0 0 17.22488038277512 285.0
181.0 563.0 0 20.095693779904305 286.0
203.0 560.0 0 22.966507177033492 286.0
226.0 564.0 0 25.83732057416268 287.0
247.0 559.0 0 28.708133971291865 287.0
270.0 557.0 0 31.578947368421055 288.0
292.0 564.0 0 34.44976076555024 288.0
315.0 565.0 0 37.32057416267943 289.0
337.0 564.0 0 40.19138755980861 289.0
359.0 564.0 0 43.062200956937794 289.0
402.0 557.0 0 45.933014354066984 289.0
424.0 321.0 0 48.80382775119617 289.0
446.0 315.0 0 51.67464114832536 288.0
468.0 309.0 0 54.54545454545455 288.0
491.0 317.0 0 57.41626794258373 288.0
513.0 258.0 0 60.28708133971292 287.0
536.0 229.0 0 63.15789473684211 287.0
558.0 227.0 0 66.02870813397129 287.0
580.0 202.0 0 68.89952153110048 287.0
602.0 225.0 0 71.77033492822966 286.0
625.0 167.0 0 74.64114832535886 286.0
647.0 326.0 0 77.51196172248804 286.0
670.0 379.0 0 80.38277511961722 286.0
693.0 256.0 0 83.2535885167464 285.0
714.0 185.0 0 86.12440191387559 285.0
737.0 182.0 0 88.99521531100478 285.0
759.0 192.0 0 91.86602870813397 284.0
782.0 216.0 0 94.73684210526315 284.0
804.0 238.0 0 97.60765550239233 284.0
826.0 215.0 0 100.47846889952153 284.0
848.0 215.0 0 103.34928229665071 283.0
891.0 463.0 500 106.2200956937799 283.0
913.0 336.0 0 109.0909090909091 282.0
935.0 330.0 0 111.96172248803828 282.0
958.0 321.0 0 114.83253588516746 282.0
980.0 324.0 0 117.70334928229666 281.0
1003.0 299.0 0 120.57416267942584 281.0
1025.0 268.0 0 123.44497607655502 281.0
1047.0 282.0 0 126.31578947368422 280.0
1069.0 282.0 0 129.1866028708134 280.0
1092.0 303.0 0 132.05741626794259 280.0
1114.0 332.0 0 134.92822966507177 279.0
1137.0 304.0 0 137.79904306220095 279.0
1158.0 312.0 0 140.66985645933013 278.0
1181.0 286.0 0 143.54066985645932 278.0
1204.0 270.0 0 146.4114832535885 278.0
1226.0 255.0 0 149.2822966507177 277.0
1249.0 252.0 0 152.1531100478469 277.0
1271.0 548.0 500 155.02392344497608 277.0
1293.0 562.0 0 157.89473684210526 276.0
1315.0 558.0 0 155.53795302079055 276.0
1338.0 564.0 0 153.18116919947585 276.0
1360.0 564.0 0 150.8243853781611 276.0
1402.0 546.0 0 148.4676015568464 276.0
1425.0 332.0 0 146.1108177355317 276.0
1447.0 319.0 0 143.754033914217 276.0
1470.0 320.0 0 141.39725009290225 276.0
1491.0 319.0 0 139.04046627158755 276.0
1514.0 342.0 0 136.68368245027284 276.0
1536.0 330.0 0 134.32689862895813 276.0
1559.0 320.0 0 131.97011480764343 276.0
1581.0 306.0 0 129.6133309863287 276.0
1603.0 324.0 0 127.25654716501398 276.0
1625.0 318.0 0 124.89976334369928 276.0
1648.0 300.0 0 122.54297952238457 276.0
1670.0 308.0 0 120.18619570106983 276.0
1693.0 337.0 0 117.82941187975513 276.0
1714.0 356.0 0 115.47262805844042 276.0
1737.0 354.0 0 113.11584423712571 276.0
1760.0 355.0 0 110.75906041581098 276.0
1782.0 322.0 0 108.40227659449627 276.0
1805.0 314.0 0 106.04549277318156 276.0
1826.0 315.0 0 103.68870895186686 276.0
1849.0 315.0 0 101.33192513055212 275.0
1892.0 480.0 500 98.97514130923742 275.0
1913.0 334.0 0 96.61835748792271 275.0
1936.0 329.0 0 99.5632229142656 275.0
1958.0 326.0 0 102.5080883406085 275.0
1981.0 333.0 0 105.45295376695138 274.0
2003.0 332.0 0 108.39781919329428 274.0
2025.0 347.0 0 111.34268461963717 274.0
2047.0 330.0 0 114.28755004598005 274.0
2070.0 334.0 0 117.23241547232296 274.0
2092.0 363.0 0 120.17728089866586 274.0
2115.0 386.0 0 123.12214632500874 273.0
2136.0 369.0 0 126.06701175135163 273.0
2159.0 390.0 0 129.01187717769454 273.0
2181.0 372.0 0 131.9567426040374 273.0
2204.0 351.0 0 134.90160803038032 273.0
2226.0 355.0 0 137.8464734567232 272.0
2248.0 365.0 0 140.7913388830661 272.0
2271.0 358.0 0 143.736204309409 272.0
2293.0 398.0 500 146.6810697357519 272.0
2316.0 484.0 0 149.62593516209478 272.0
2338.0 563.0 0 147.6542756820324 272.0
2361.0 563.0 0 145.68261620197 272.0
2403.0 558.0 0 143.71095672190762 273.0
2425.0 347.0 0 141.73929724184524 274.0
2447.0 327.0 0 139.76763776178285 274.0
2469.0 326.0 0 137.79597828172047 275.0
2492.0 322.0 0 135.82431880165808 275.0
2514.0 313.0 0 133.8526593215957 276.0
2537.0 287.0 0 131.8809998415333 277.0
2559.0 306.0 0 129.90934036147092 277.0
2581.0 319.0 0 127.93768088140853 278.0
2603.0 334.0 0 125.96602140134614 278.0
2626.0 332.0 0 123.99436192128375 279.0
2648.0 342.0 0 122.02270244122137 279.0
2671.0 341.0 0 120.05104296115898 280.0
2692.0 370.0 0 118.0793834810966 281.0
2715.0 381.0 0 116.1077240010342 281.0
2737.0 389.0 0 114.13606452097181 282.0
2760.0 336.0 0 112.16440504090943 282.0
2783.0 372.0 0 110.19274556084704 283.0
2804.0 355.0 0 108.22108608078466 284.0
2827.0 359.0 0 106.24942660072227 284.0
2849.0 359.0 0 104.27776712065989 285.0
2891.0 482.0 500 102.3061076405975 285.0
2914.0 338.0 0 100.33444816053512 285.0
2936.0 322.0 0 99.64878271021959 285.0
2959.0 326.0 0 98.96311725990408 285.0
2981.0 331.0 0 98.27745180958856 285.0
3003.0 323.0 0 97.59178635927304 285.0
3025.0 321.0 0 96.90612090895752 285.0
3048.0 327.0 0 96.220455458642 285.0
3070.0 560.0 0 95.53479000832648 285.0
3092.0 559.0 0 94.84912455801096 285.0
3114.0 556.0 0 94.16345910769545 285.0
3137.0 564.0 0 93.47779365737992 285.0
3159.0 561.0 0 92.7921282070644 285.0
3182.0 560.0 0 92.10646275674888 285.0
3203.0 561.0 0 91.42079730643336 285.0
3226.0 556.0 0 90.73513185611785 285.0
3248.0 555.0 0 90.04946640580232 285.0
3271.0 562.0 0 89.36380095548681 285.0
3294.0 563.0 0 88.67813550517128 285.0
3315.0 563.0 0 87.99247005485576 285.0
3338.0 560.0 0 87.30680460454025 285.0
3360.0 560.0 0 86.62113915422472 284.0
3402.0 545.0 0 85.93547370390921 284.0
3425.0 325.0 0 85.24980825359368 283.0
3447.0 319.0 0 84.56414280327816 283.0
3470.0 303.0 0 83.87847735296265 282.0
3492.0 304.0 0 83.19281190264712 282.0
3514.0 304.0 0 82.50714645233161 282.0
3536.0 334.0 0 81.82148100201609 281.0
3559.0 326.0 0 81.13581555170057 281.0
3581.0 278.0 0 80.45015010138505 281.0
3604.0 289.0 0 79.76448465106952 280.0
3625.0 278.0 0 79.07881920075401 280.0
3648.0 233.0 0 78.39315375043849 280.0
3670.0 478.0 500 77.70748830012298 279.0
3693.0 559.0 0 77.02182284980745 279.0
3715.0 559.0 0 77.73613260336371 279.0
3737.0 559.0 0 78.45044235691998 278.0
3759.0 563.0 0 79.16475211047624 278.0
3782.0 556.0 0 79.87906186403252 277.0
3804.0 558.0 0 80.59337161758879 277.0
3827.0 556.0 0 81.30768137114505 277.0
3850.0 556.0 0 82.02199112470132 277.0
3892.0 557.0 0 82.73630087825758 277.0
3914.0 320.0 0 83.45061063181384 277.0
3937.0 314.0 0 84.16492038537011 277.0
3958.0 314.0 0 84.87923013892639 277.0
3981.0 311.0 0 85.59353989248265 277.0
4003.0 282.0 0 86.30784964603892 277.0
4026.0 244.0 0 87.02215939959518 277.0
4048.0 249.0 0 87.73646915315145 277.0
4070.0 250.0 0 88.45077890670771 277.0
4092.0 233.0 0 89.16508866026399 277.0
4115.0 236.0 0 89.87939841382025 277.0
4137.0 247.0 0 90.59370816737652 277.0
4160.0 262.0 0 91.30801792093278 277.0
4181.0 268.0 0 92.02232767448905 277.0
4204.0 246.0 0 92.73663742804531 277.0
4226.0 226.0 0 93.45094718160158 277.0
4249.0 237.0 0 94.16525693515786 277.0
4271.0 186.0 0 94.87956668871412 277.0
4293.0 431.0 500 95.59387644227039 277.0
4315.0 461.0 0 96.30818619582665 277.0
4338.0 404.0 0 96.4625365443208 277.0
4361.0 404.0 0 96.61688689281495 277.0
4402.0 464.0 0 96.7712372413091 277.0
4425.0 330.0 0 96.92558758980323 277.0
4448.0 327.0 0 97.07993793829738 277.0
4470.0 329.0 0 97.23428828679153 277.0
4492.0 333.0 0 97.38863863528567 277.0
4514.0 325.0 0 97.54298898377982 277.0
4537.0 319.0 0 97.69733933227397 277.0
4559.0 329.0 0 97.8516896807681 277.0
4582.0 332.0 0 98.00604002926225 277.0
4603.0 298.0 0 98.1603903777564 276.0
4626.0 307.0 0 98.31474072625055 276.0
4648.0 290.0 0 98.4690910747447 276.0
4671.0 299.0 0 98.62344142323884 276.0
4693.0 311.0 0 98.77779177173298 276.0
4715.0 305.0 0 98.93214212022713 276.0
4737.0 336.0 0 99.08649246872127 276.0
4760.0 325.0 0 99.24084281721542 276.0
4782.0 317.0 0 99.39519316570957 276.0
4805.0 348.0 0 99.54954351420372 276.0
4826.0 337.0 0 99.70389386269785 276.0
4849.0 337.0 0 99.858244211192 275.0
4892.0 472.0 500 100.01259455968615 275.0
4913.0 342.0 0 100.1669449081803 275.0
4936.0 335.0 0 99.73080436431304 274.0
4959.0 321.0 0 99.29466382044578 274.0
4981.0 327.0 0 98.85852327657852 274.0
5004.0 341.0 0 98.42238273271127 273.0
5025.0 354.0 0 97.986242188844 273.0
5048.0 368.0 0 97.55010164497675 273.0
5070.0 425.0 0 97.1139611011095 272.0
5093.0 560.0 0 96.67782055724223 272.0
5115.0 556.0 0 96.24168001337497 272.0
5137.0 562.0 0 95.80553946950772 271.0
5159.0 557.0 0 95.36939892564045 271.0
5182.0 558.0 0 94.9332583817732 271.0
5204.0 562.0 0 94.49711783790595 270.0
5227.0 560.0 0 94.06097729403868 270.0
5249.0 561.0 0 93.62483675017143 270.0
5271.0 562.0 0 93.18869620630417 269.0
5293.0 563.0 0 92.7525556624369 269.0
5316.0 562.0 0 92.31641511856965 269.0
5338.0 559.0 0 91.8802745747024 269.0
5361.0 559.0 0 91.44413403083513 269.0
5403.0 553.0 0 91.00799348696788 270.0
5425.0 325.0 0 90.57185294310062 270.0
5448.0 314.0 0 90.13571239923336 271.0
5470.0 317.0 0 89.6995718553661 272.0
5492.0 318.0 0 89.26343131149885 272.0
5515.0 290.0 0 88.82729076763158 273.0
5537.0 301.0 0 88.39115022376433 273.0
5560.0 206.0 0 87.95500967989707 274.0
5581.0 407.0 500 87.5188691360298 274.0
5604.0 559.0 0 87.08272859216255 275.0
5626.0 562.0 0 90.14369338074962 275.0
5649.0 562.0 0 93.2046581693367 276.0
5671.0 564.0 0 96.26562295792377 276.0
5693.0 561.0 0 99.32658774651084 277.0
5715.0 557.0 0 102.38755253509791 277.0
5738.0 560.0 0 105.44851732368498 278.0
5760.0 562.0 0 108.50948211227205 279.0
5783.0 562.0 0 111.57044690085912 279.0
5804.0 561.0 0 114.6314116894462 280.0
5827.0 562.0 0 117.69237647803328 280.0
5849.0 562.0 0 120.75334126662035 280.0
5891.0 553.0 0 123.81430605520742 279.0
5914.0 318.0 0 126.87527084379448 278.0
5936.0 310.0 0 129.93623563238157 277.0
5959.0 310.0 0 132.99720042096862 276.0
5982.0 305.0 0 136.0581652095557 275.0
6003.0 367.0 500 139.1191299981428 274.0
6026.0 490.0 0 142.18009478672985 274.0
6048.0 558.0 0 140.25330143100354 273.0
6071.0 559.0 0 138.32650807527722 272.0
6093.0 559.0 0 136.3997147195509 271.0
6115.0 561.0 0 134.47292136382458 270.0
6137.0 564.0 0 132.5461280080983 269.0
6160.0 561.0 0 130.61933465237198 268.0
6182.0 562.0 0 128.69254129664566 268.0
6205.0 558.0 0 126.76574794091934 267.0
6226.0 562.0 0 124.83895458519302 266.0
6249.0 558.0 0 122.9121612294667 265.0
6271.0 559.0 0 120.98536787374039 264.0
6294.0 561.0 0 119.05857451801408 263.0
6316.0 563.0 0 117.13178116228777 262.0
6338.0 556.0 0 115.20498780656145 262.0
6360.0 556.0 0 113.27819445083513 262.0
6403.0 560.0 0 111.35140109510883 262.0
6425.0 311.0 0 109.42460773938251 262.0
6447.0 295.0 0 107.49781438365619 263.0
6470.0 301.0 0 105.57102102792987 263.0
6492.0 296.0 0 103.64422767220356 263.0
6515.0 300.0 0 101.71743431647724 263.0
6537.0 297.0 0 99.79064096075092 263.0
6559.0 312.0 0 97.86384760502463 264.0
6582.0 310.0 0 95.93705424929831 264.0
6604.0 302.0 0 94.010260893572 264.0
6627.0 304.0 0 92.08346753784568 264.0
6648.0 310.0 0 90.15667418211936 265.0
6671.0 361.0 0 88.22988082639304 265.0
6693.0 372.0 0 86.30308747066672 265.0
6716.0 386.0 0 84.3762941149404 265.0
6738.0 332.0 0 82.44950075921409 265.0
6761.0 303.0 0 80.5227074034878 266.0
6782.0 314.0 0 78.59591404776148 266.0
6805.0 246.0 0 76.66912069203516 266.0
6827.0 422.0 500 74.74232733630885 266.0
6850.0 422.0 0 72.81553398058253 267.0
6892.0 552.0 0 74.842865606265 267.0
6914.0 339.0 0 76.87019723194747 267.0
6937.0 325.0 0 78.89752885762994 267.0
6959.0 315.0 0 80.92486048331241 267.0
6981.0 312.0 0 82.95219210899488 268.0
7003.0 350.0 0 84.97952373467734 268.0
7026.0 338.0 0 87.00685536035982 268.0
7049.0 361.0 0 89.03418698604229 268.0
7071.0 386.0 0 91.06151861172476 268.0
7093.0 485.0 0 93.08885023740723 269.0
7115.0 555.0 0 95.11618186308971 269.0
7138.0 558.0 0 97.14351348877217 269.0
7160.0 558.0 0 99.17084511445464 269.0
7183.0 556.0 0 101.19817674013711 269.0
7204.0 558.0 0 103.22550836581958 269.0
7227.0 562.0 0 105.25283999150204 270.0
7249.0 561.0 0 107.28017161718452 270.0
7272.0 563.0 0 109.307503242867 270.0
7294.0 562.0 0 111.33483486854946 270.0
7316.0 562.0 0 113.36216649423193 270.0
7338.0 559.0 500 115.3894981199144 270.0
7361.0 559.0 0 117.41682974559687 271.0
7403.0 558.0 0 117.02058710872191 271.0
7425.0 316.0 0 116.62434447184697 271.0
7448.0 308.0 0 116.22810183497201 271.0
7470.0 313.0 0 115.83185919809705 272.0
7493.0 315.0 0 115.4356165612221 272.0
7514.0 308.0 0 115.03937392434715 272.0
7537.0 320.0 0 114.64313128747219 272.0
7559.0 301.0 0 114.24688865059724 272.0
7582.0 333.0 0 113.85064601372228 272.0
7605.0 368.0 0 113.45440337684732 273.0
7626.0 338.0 0 113.05816073997238 273.0
7649.0 373.0 0 112.66191810309742 273.0
7671.0 377.0 0 112.26567546622248 273.0
7694.0 345.0 0 111.86943282934752 273.0
7716.0 335.0 0 111.47319019247256 273.0
7739.0 356.0 0 111.07694755559761 274.0
7760.0 320.0 0 110.68070491872265 274.0
7783.0 333.0 0 110.2844622818477 274.0
7805.0 326.0 0 109.88821964497275 274.0
7828.0 335.0 0 109.49197700809779 274.0
7850.0 335.0 0 109.09573437122283 274.0
7892.0 494.0 500 108.69949173434789 273.0
7915.0 332.0 0 108.30324909747293 272.0
7937.0 320.0 0 107.34638391128934 271.0
7959.0 316.0 0 106.38951872510576 271.0
7981.0 327.0 0 105.43265353892217 270.0
8004.0 303.0 0 104.47578835273858 269.0
8026.0 289.0 0 103.518923166555 269.0
8049.0 296.0 0 102.5620579803714 268.0
8070.0 559.0 0 101.60519279418781 267.0
8093.0 559.0 0 100.64832760800424 266.0
8116.0 556.0 0 99.69146242182065 266.0
8138.0 553.0 0 98.73459723563707 265.0
8161.0 556.0 0 97.77773204945348 264.0
8182.0 556.0 0 96.82086686326988 264.0
8205.0 560.0 0 95.86400167708629 263.0
8227.0 563.0 0 94.90713649090272 262.0
8250.0 562.0 0 93.95027130471912 261.0
8272.0 560.0 0 92.99340611853555 261.0
8294.0 559.0 0 92.03654093235195 260.0
8316.0 564.0 0 91.07967574616836 259.0
8339.0 557.0 0 90.12281055998477 259.0
8361.0 557.0 0 89.1659453738012 259.0
8403.0 558.0 0 88.2090801876176 260.0
8426.0 322.0 0 87.25221500143402 261.0
8448.0 308.0 0 86.29534981525043 261.0
8471.0 308.0 0 85.33848462906684 262.0
8492.0 303.0 0 84.38161944288325 263.0
8515.0 296.0 0 83.42475425669967 263.0
8537.0 308.0 0 82.46788907051608 264.0
8560.0 303.0 0 81.5110238843325 265.0
8582.0 261.0 0 80.55415869814891 265.0
8604.0 246.0 0 79.59729351196532 266.0
8626.0 252.0 0 78.64042832578174 266.0
8649.0 233.0 0 77.68356313959815 267.0
8672.0 218.0 0 76.72669795341456 268.0
8694.0 438.0 500 75.76983276723098 268.0
8716.0 550.0 0 74.81296758104739 269.0
8738.0 562.0 0 75.78169959716095 270.0
8761.0 557.0 0 76.75043161327451 270.0
8783.0 561.0 0 77.71916362938808 271.0
8806.0 558.0 0 78.68789564550164 271.0
8827.0 556.0 0 79.6566276616152 272.0
8850.0 556.0 0 80.62535967772877 272.0
8893.0 554.0 0 81.59409169384232 272.0
8914.0 331.0 0 82.56282370995588 272.0
8937.0 317.0 0 83.53155572606944 272.0
8959.0 314.0 0 84.500287742183 271.0
8982.0 311.0 0 85.46901975829657 271.0
9004.0 322.0 0 86.43775177441013 271.0
9026.0 318.0 0 87.4064837905237 271.0
9048.0 334.0 0 88.37521580663726 270.0
9071.0 323.0 0 89.34394782275082 270.0
9093.0 310.0 0 90.31267983886438 270.0
9116.0 309.0 0 91.28141185497795 270.0
9137.0 303.0 0 92.2501438710915 270.0
9160.0 319.0 0 93.21887588720506 269.0
9183.0 345.0 0 94.18760790331862 269.0
9205.0 314.0 0 95.15633991943218 269.0
9228.0 309.0 0 96.12507193554575 269.0
9249.0 326.0 0 97.09380395165931 268.0
9272.0 262.0 0 98.06253596777287 268.0
9294.0 361.0 500 99.03126798388644 268.0
9317.0 557.0 0 100.0 268.0
9339.0 559.0 0 100.0133779264214 268.0
9362.0 559.0 0 100.02675585284281 268.0
9404.0 553.0 0 100.04013377926421 268.0
9426.0 334.0 0 100.05351170568562 268.0
9449.0 330.0 0 100.06688963210702 268.0
9470.0 324.0 0 100.08026755852843 268.0
9493.0 317.0 0 100.09364548494983 268.0
9515.0 345.0 0 100.10702341137124 268.0
9538.0 304.0 0 100.12040133779264 268.0
9560.0 317.0 0 100.13377926421404 268.0
9582.0 325.0 0 100.14715719063545 268.0
9604.0 313.0 0 100.16053511705685 269.0
9627.0 298.0 0 100.17391304347827 269.0
9649.0 289.0 0 100.18729096989966 269.0
9672.0 288.0 0 100.20066889632108 269.0
9694.0 328.0 0 100.21404682274247 269.0
9716.0 317.0 0 100.22742474916387 269.0
9739.0 317.0 0 100.24080267558529 269.0
9761.0 316.0 0 100.25418060200668 269.0
9784.0 340.0 0 100.2675585284281 269.0
9805.0 391.0 0 100.2809364548495 269.0
9828.0 366.0 0 100.29431438127091 269.0
9850.0 366.0 0 100.3076923076923 270.0
9892.0 470.0 500 100.32107023411372 270.0
9915.0 335.0 0 100.33444816053512 270.0
9937.0 333.0 0 99.9718933716007 270.0
9960.0 328.0 0 99.6093385826663 270.0
9982.0 328.0 0 99.24678379373188 271.0
10004.0 352.0 0 98.88422900479746 271.0
10026.0 426.0 0 98.52167421586304 271.0
10049.0 555.0 0 98.15911942692864 271.0
10071.0 556.0 0 97.79656463799422 271.0
10094.0 557.0 0 97.4340098490598 272.0
10115.0 563.0 0 97.07145506012539 272.0
10138.0 560.0 0 96.70890027119098 272.0
10160.0 561.0 0 96.34634548225657 272.0
10183.0 562.0 0 95.98379069332215 272.0
10206.0 563.0 0 95.62123590438775 272.0
10227.0 558.0 0 95.25868111545333 273.0
10250.0 557.0 0 94.89612632651891 273.0
10272.0 557.0 0 94.53357153758449 273.0
10295.0 561.0 0 94.17101674865009 273.0
10317.0 560.0 0 93.80846195971567 273.0
10339.0 560.0 0 93.44590717078125 273.0
10361.0 560.0 0 93.08335238184685 273.0
10404.0 553.0 0 92.72079759291243 273.0
10426.0 324.0 0 92.35824280397802 273.0
10448.0 308.0 0 91.9956880150436 273.0
10471.0 304.0 0 91.6331332261092 273.0
10493.0 314.0 0 91.27057843717478 273.0
10516.0 301.0 0 90.90802364824036 273.0
10537.0 226.0 0 90.54546885930594 273.0
10560.0 291.0 500 90.18291407037154 273.0
10582.0 563.0 0 89.82035928143712 273.0
10605.0 559.0 0 89.9347484433127 272.0
10627.0 558.0 0 90.04913760518829 272.0
10649.0 558.0 0 90.16352676706387 272.0
10671.0 563.0 0 90.27791592893946 272.0
10694.0 558.0 0 90.39230509081504 272.0
10716.0 561.0 0 90.50669425269062 272.0
10739.0 562.0 0 90.62108341456621 272.0
10761.0 558.0 0 90.7354725764418 272.0
10783.0 559.0 0 90.84986173831739 272.0
10806.0 558.0 0 90.96425090019297 272.0
10828.0 555.0 0 91.07864006206854 272.0
10851.0 555.0 0 91.19302922394414 271.0
10893.0 553.0 0 91.30741838581972 271.0
10915.0 322.0 0 91.4218075476953 270.0
10938.0 308.0 0 91.53619670957089 270.0
10959.0 307.0 0 91.65058587144647 270.0
10982.0 300.0 0 91.76497503332206 270.0
11004.0 313.0 0 91.87936419519764 269.0
11027.0 347.0 0 91.99375335707322 269.0
11049.0 350.0 0 92.10814251894881 269.0
11071.0 340.0 0 92.22253168082439 268.0
11093.0 321.0 0 92.33692084269998 268.0
11116.0 284.0 0 92.45131000457556 268.0
11138.0 289.0 0 92.56569916645114 267.0
11161.0 300.0 0 92.68008832832673 267.0
11182.0 259.0 0 92.79447749020231 267.0
11205.0 547.0 500 92.9088666520779 266.0
11227.0 561.0 0 93.02325581395348 266.0
11250.0 562.0 0 97.12993724621631 266.0
11273.0 562.0 0 101.23661867847915 265.0
11295.0 564.0 0 105.34330011074196 265.0
11317.0 560.0 0 109.4499815430048 265.0
11339.0 558.0 0 113.55666297526763 265.0
11362.0 558.0 0 117.66334440753045 265.0
11404.0 559.0 0 121.77002583979328 266.0
11426.0 320.0 0 125.87670727205611 267.0
11449.0 317.0 0 129.98338870431894 267.0
11471.0 315.0 0 134.09007013658177 268.0
11494.0 313.0 0 138.1967515688446 269.0
11515.0 342.0 0 142.3034330011074 269.0
11538.0 406.0 0 146.41011443337027 270.0
11560.0 383.0 0 150.51679586563307 271.0
11583.0 555.0 500 154.6234772978959 271.0
11605.0 560.0 0 158.73015873015873 272.0
11627.0 562.0 0 156.32197930744826 272.0
11649.0 562.0 0 153.9137998847378 273.0
11672.0 556.0 0 151.50562046202734 274.0
11694.0 559.0 0 149.09744103931686 274.0
11717.0 559.0 0 146.68926161660642 275.0
11738.0 562.0 0 144.28108219389594 276.0
11761.0 563.0 0 141.87290277118547 276.0
11783.0 560.0 0 139.464723348475 277.0
11806.0 560.0 0 137.05654392576454 277.0
11829.0 563.0 0 134.64836450305407 278.0
11850.0 563.0 0 132.2401850803436 278.0
11893.0 555.0 0 129.83200565763315 277.0
11916.0 318.0 0 127.42382623492267 277.0
11937.0 308.0 0 125.0156468122122 276.0
11960.0 299.0 0 122.60746738950174 276.0
11982.0 312.0 0 120.19928796679127 275.0
12005.0 234.0 0 117.7911085440808 275.0
12027.0 102.0 0 115.38292912137034 274.0
12049.0 232.0 0 112.97474969865988 274.0
12071.0 116.0 0 110.5665702759494 273.0
12094.0 205.0 0 108.15839085323894 272.0
12116.0 236.0 0 105.75021143052848 272.0
12139.0 107.0 0 103.342032007818 271.0
12160.0 144.0 0 100.93385258510753 271.0
12183.0 208.0 0 98.52567316239707 270.0
12205.0 138.0 0 96.11749373968661 270.0
12228.0 184.0 0 93.70931431697613 269.0
12250.0 288.0 0 91.30113489426567 269.0
12272.0 178.0 0 88.89295547155521 268.0
12294.0 318.0 0 86.48477604884474 268.0
12317.0 148.0 0 84.07659662613426 267.0
12340.0 304.0 500 81.6684172034238 267.0
12362.0 304.0 0 79.26023778071334 266.0
12404.0 436.0 0 79.53872077246407 266.0
12427.0 329.0 0 79.81720376421481 265.0
12449.0 325.0 0 80.09568675596554 265.0
12471.0 331.0 0 80.3741697477163 265.0
12493.0 328.0 0 80.65265273946703 264.0
12516.0 315.0 0 80.93113573121776 264.0
12538.0 343.0 0 81.2096187229685 264.0
12561.0 362.0 0 81.48810171471924 263.0
12582.0 361.0 0 81.76658470646997 263.0
12605.0 422.0 0 82.0450676982207 263.0
12627.0 387.0 0 82.32355068997146 263.0
12650.0 404.0 0 82.60203368172219 262.0
12672.0 560.0 0 82.88051667347293 262.0
12694.0 560.0 0 83.15899966522366 262.0
12716.0 563.0 0 83.4374826569744 261.0
12739.0 558.0 0 83.71596564872513 261.0
12761.0 562.0 0 83.99444864047587 261.0
12784.0 557.0 0 84.2729316322266 260.0
12805.0 554.0 0 84.55141462397735 260.0
12828.0 562.0 0 84.82989761572809 260.0
12850.0 562.0 0 85.10838060747882 260.0
12892.0 558.0 0 85.38686359922956 260.0
12915.0 333.0 0 85.66534659098029 260.0
12938.0 317.0 0 85.94382958273103 260.0
12960.0 312.0 0 86.22231257448176 260.0
12983.0 314.0 0 86.50079556623251 260.0
13004.0 278.0 0 86.77927855798325 260.0
13027.0 428.0 500 87.05776154973398 260.0
13049.0 558.0 0 87.33624454148472 260.0
13072.0 561.0 0 87.8169124686937 260.0
13094.0 556.0 0 88.2975803959027 261.0
13116.0 561.0 0 88.77824832311168 261.0
13138.0 558.0 0 89.25891625032068 261.0
13161.0 556.0 0 89.73958417752966 261.0
13183.0 560.0 0 90.22025210473866 261.0
13206.0 558.0 0 90.70092003194765 261.0
13227.0 561.0 0 91.18158795915664 261.0
13250.0 562.0 0 91.66225588636563 261.0
13272.0 563.0 0 92.14292381357463 261.0
13295.0 562.0 0 92.62359174078361 261.0
13317.0 559.0 0 93.10425966799261 261.0
13339.0 561.0 0 93.58492759520159 261.0
13361.0 561.0 0 94.06559552241058 262.0
13404.0 552.0 0 94.54626344961957 264.0
13426.0 313.0 0 95.02693137682856 265.0
13449.0 305.0 0 95.50759930403756 266.0
13471.0 297.0 0 95.98826723124654 266.0
13494.0 302.0 0 96.46893515845554 267.0
13516.0 339.0 0 96.94960308566452 268.0
13538.0 285.0 0 97.43027101287352 269.0
13560.0 412.0 0 97.9109389400825 270.0
13583.0 274.0 0 98.3916068672915 271.0
13605.0 256.0 0 98.87227479450048 271.0
13628.0 542.0 500 99.35294272170947 272.0
13649.0 561.0 0 99.83361064891847 273.0
13672.0 556.0 0 100.93443012621431 274.0
13694.0 560.0 0 102.03524960351015 275.0
13717.0 558.0 0 103.136069080806 276.0
13739.0 558.0 0 104.23688855810184 277.0
13762.0 560.0 0 105.33770803539767 277.0
13783.0 562.0 0 106.43852751269351 278.0
13806.0 562.0 0 107.53934698998935 279.0
13828.0 562.0 0 108.6401664672852 280.0
13851.0 562.0 0 109.74098594458104 280.0
13893.0 554.0 0 110.84180542187688 279.0
13915.0 321.0 0 111.94262489917273 278.0
13938.0 304.0 0 113.04344437646857 278.0
13959.0 300.0 0 114.14426385376441 277.0
13982.0 308.0 0 115.24508333106026 277.0
14005.0 316.0 0 116.3459028083561 276.0
14027.0 320.0 0 117.44672228565193 275.0
14050.0 334.0 0 118.54754176294779 275.0
14071.0 445.0 0 119.64836124024362 274.0
14094.0 431.0 0 120.74918071753946 273.0
14116.0 488.0 500 121.8500001948353 273.0
14139.0 556.0 0 122.95081967213115 272.0
14161.0 556.0 0 121.56503959782648 272.0
14184.0 561.0 0 120.17925952352182 271.0
14205.0 556.0 0 118.79347944921716 270.0
14228.0 558.0 0 117.40769937491248 270.0
14250.0 560.0 0 116.02191930060782 269.0
14273.0 562.0 0 114.63613922630316 268.0
14295.0 556.0 0 113.2503591519985 268.0
14317.0 562.0 0 111.86457907769383 267.0
14339.0 557.0 0 110.47879900338917 267.0
14362.0 557.0 0 109.09301892908451 267.0
14404.0 546.0 0 107.70723885477983 267.0
14426.0 317.0 0 106.32145878047517 267.0
14449.0 306.0 0 104.9356787061705 268.0
14471.0 305.0 0 103.54989863186584 268.0
14494.0 301.0 0 102.16411855756118 268.0
14516.0 307.0 0 100.7783384832565 269.0
14538.0 286.0 0 99.39255840895186 269.0
14561.0 282.0 0 98.00677833464718 269.0
14583.0 321.0 0 96.62099826034252 269.0
14606.0 275.0 0 95.23521818603786 270.0
14627.0 255.0 0 93.84943811173319 270.0
14650.0 268.0 0 92.46365803742853 270.0
14672.0 300.0 0 91.07787796312385 270.0
14695.0 300.0 0 89.6920978888192 271.0
14717.0 302.0 0 88.30631781451453 271.0
14739.0 321.0 0 86.92053774020987 271.0
14761.0 324.0 0 85.5347576659052 272.0
14784.0 246.0 0 84.14897759160053 272.0
14806.0 276.0 0 82.76319751729588 272.0
14829.0 245.0 0 81.3774174429912 272.0
14850.0 245.0 0 79.99163736868654 272.0
14893.0 479.0 500 78.60585729438188 272.0
14916.0 324.0 0 77.22007722007721 272.0
14937.0 316.0 0 80.07048275504651 272.0
14960.0 323.0 0 82.9208882900158 272.0
14982.0 316.0 0 85.7712938249851 272.0
15005.0 348.0 0 88.62169935995439 272.0
15028.0 296.0 0 91.47210489492369 272.0
15049.0 240.0 0 94.32251042989299 272.0
15072.0 269.0 0 97.17291596486227 272.0
15094.0 295.0 0 100.02332149983157 271.0
15117.0 394.0 0 102.87372703480086 271.0
15139.0 275.0 0 105.72413256977015 271.0
15161.0 256.0 0 108.57453810473945 271.0
15183.0 297.0 0 111.42494363970874 271.0
15206.0 312.0 0 114.27534917467804 271.0
15228.0 264.0 0 117.12575470964734 271.0
15251.0 279.0 0 119.97616024461662 271.0
15272.0 339.0 0 122.82656577958592 271.0
15295.0 356.0 0 125.6769713145552 271.0
15317.0 336.0 0 128.5273768495245 271.0
15340.0 502.0 500 131.3777823844938 271.0
15362.0 502.0 0 134.2281879194631 270.0
15404.0 553.0 0 133.46403527519644 269.0
15427.0 333.0 0 132.6998826309298 268.0
15449.0 325.0 0 131.93572998666315 268.0
15471.0 328.0 0 131.17157734239652 267.0
15493.0 328.0 0 130.40742469812986 267.0
15516.0 321.0 0 129.64327205386323 266.0
15538.0 366.0 0 128.87911940959657 265.0
15561.0 558.0 0 128.1149667653299 265.0
15583.0 558.0 0 127.35081412106328 264.0
15605.0 562.0 0 126.58666147679664 264.0
15628.0 564.0 0 125.82250883252999 263.0
15650.0 560.0 0 125.05835618826333 263.0
15673.0 557.0 0 124.29420354399669 262.0
15694.0 555.0 0 123.53005089973004 261.0
15717.0 562.0 0 122.7658982554634 261.0
15739.0 559.0 0 122.00174561119675 260.0
15762.0 556.0 0 121.23759296693011 260.0
15784.0 556.0 0 120.47344032266346 259.0
15807.0 563.0 0 119.7092876783968 258.0
15828.0 557.0 0 118.94513503413016 258.0
15851.0 557.0 500 118.18098238986352 258.0
15893.0 545.0 0 117.41682974559687 259.0
15915.0 327.0 0 117.02058710872191 260.0
15938.0 296.0 0 116.62434447184697 260.0
15960.0 314.0 0 116.22810183497201 261.0
15983.0 316.0 0 115.83185919809705 261.0
16004.0 272.0 0 115.4356165612221 262.0
16027.0 272.0 0 115.03937392434715 263.0
16049.0 272.0 0 114.64313128747219 263.0
16072.0 272.0 0 114.24688865059724 264.0
16095.0 272.0 0 113.85064601372228 265.0
16116.0 272.0 0 113.45440337684732 265.0
16139.0 272.0 0 113.05816073997238 266.0
16161.0 272.0 0 112.66191810309742 266.0
16184.0 272.0 0 112.26567546622248 267.0
16206.0 272.0 0 111.86943282934752 268.0
16229.0 272.0 0 111.47319019247256 268.0
16250.0 272.0 0 111.07694755559761 269.0
16273.0 272.0 0 110.68070491872265 270.0
16295.0 272.0 0 110.2844622818477 270.0
16318.0 272.0 0 109.88821964497275 271.0
16340.0 272.0 0 109.49197700809779 271.0
16362.0 272.0 0 109.09573437122283 272.0
16405.0 401.0 500 108.69949173434789 272.0
16426.0 328.0 0 108.30324909747293 272.0
16449.0 327.0 0 107.86472218675314 272.0
16471.0 326.0 0 107.42619527603335 272.0
16494.0 319.0 0 106.98766836531355 272.0
16516.0 327.0 0 106.54914145459377 272.0
16539.0 410.0 0 106.11061454387398 272.0
16560.0 557.0 0 105.67208763315419 272.0
16583.0 561.0 0 105.23356072243439 272.0
16606.0 557.0 0 104.7950338117146 272.0
16628.0 562.0 0 104.35650690099482 272.0
16651.0 554.0 0 103.91797999027503 272.0
16672.0 562.0 0 103.47945307955524 272.0
16695.0 562.0 0 103.04092616883544 272.0
16717.0 558.0 0 102.60239925811565 272.0
16740.0 559.0 0 102.16387234739587 272.0
16762.0 559.0 0 101.72534543667608 272.0
16784.0 560.0 0 101.28681852595628 272.0
16806.0 563.0 0 100.84829161523649 272.0
16829.0 558.0 0 100.4097647045167 272.0
16851.0 558.0 0 99.97123779379692 273.0
16893.0 555.0 0 99.53271088307713 273.0
16916.0 324.0 0 99.09418397235733 273.0
16938.0 308.0 0 98.65565706163754 273.0
16961.0 307.0 0 98.21713015091775 273.0
16982.0 305.0 0 97.77860324019797 273.0
17005.0 336.0 0 97.34007632947817 273.0
17027.0 556.0 500 96.90154941875838 273.0
17050.0 562.0 0 96.46302250803859 273.0
17072.0 558.0 0 96.45728782980852 273.0
17094.0 560.0 0 96.45155315157845 273.0
17116.0 559.0 0 96.44581847334838 273.0
17139.0 562.0 0 96.4400837951183 273.0
17162.0 560.0 0 96.43434911688823 273.0
17183.0 560.0 0 96.42861443865816 273.0
17206.0 558.0 0 96.42287976042809 273.0
17228.0 564.0 0 96.41714508219802 273.0
17251.0 561.0 0 96.41141040396795 273.0
17273.0 560.0 0 96.40567572573788 273.0
17295.0 557.0 0 96.3999410475078 273.0
17317.0 563.0 0 96.39420636927773 273.0
17340.0 560.0 0 96.38847169104766 273.0
17362.0 560.0 0 96.38273701281759 272.0
17404.0 554.0 0 96.37700233458752 271.0
17427.0 320.0 0 96.37126765635745 270.0
17449.0 300.0 0 96.36553297812736 270.0
17472.0 298.0 0 96.35979829989729 269.0
17493.0 312.0 0 96.35406362166722 269.0
17516.0 314.0 0 96.34832894343715 268.0
17538.0 361.0 0 96.34259426520708 267.0
17561.0 336.0 0 96.33685958697701 267.0
17583.0 316.0 0 96.33112490874694 266.0
17605.0 354.0 0 96.32539023051686 266.0
17627.0 289.0 0 96.31965555228679 265.0
17650.0 422.0 500 96.31392087405672 265.0
17673.0 372.0 0 96.30818619582665 264.0
17695.0 365.0 0 96.44377944402248 263.0
17717.0 368.0 0 96.57937269221833 263.0
17739.0 374.0 0 96.71496594041417 262.0
17762.0 448.0 0 96.85055918861 262.0
17784.0 465.0 0 96.98615243680584 261.0
17807.0 550.0 0 97.12174568500168 260.0
17828.0 557.0 0 97.25733893319753 260.0
17851.0 557.0 0 97.39293218139336 260.0
17894.0 554.0 0 97.5285254295892 260.0
17915.0 333.0 0 97.66411867778504 260.0
17938.0 307.0 0 97.79971192598089 261.0
17960.0 311.0 0 97.93530517417672 261.0
17983.0 316.0 0 98.07089842237255 261.0
18005.0 356.0 0 98.2064916705684 261.0
18027.0 394.0 0 98.34208491876424 262.0
18049.0 437.0 0 98.47767816696008 262.0
18072.0 557.0 0 98.61327141515591 262.0
18094.0 562.0 0 98.74886466335175 263.0
18117.0 562.0 0 98.8844579115476 263.0
18138.0 558.0 0 99.02005115974343 263.0
18161.0 556.0 0 99.15564440793926 263.0
18183.0 559.0 0 99.29123765613511 264.0
18206.0 562.0 0 99.42683090433096 264.0
18229.0 561.0 0 99.56242415252679 264.0
18251.0 561.0 500 99.69801740072262 264.0
18273.0 562.0 0 99.83361064891847 265.0
18295.0 563.0 0 98.92182138438378 265.0
18318.0 562.0 0 98.01003211984909 265.0
18340.0 559.0 0 97.0982428553144 265.0
18363.0 559.0 0 96.1864535907797 266.0
18405.0 558.0 0 95.27466432624502 266.0
18427.0 320.0 0 94.36287506171033 266.0
18450.0 314.0 0 93.45108579717565 266.0
18471.0 300.0 0 92.53929653264096 266.0
18494.0 310.0 0 91.62750726810627 266.0
18516.0 257.0 0 90.71571800357158 266.0
18539.0 257.0 0 89.80392873903689 266.0
18561.0 257.0 0 88.8921394745022 266.0
18583.0 257.0 0 87.98035020996751 266.0
18605.0 257.0 0 87.06856094543282 266.0
18628.0 257.0 0 86.15677168089813 266.0
18650.0 257.0 0 85.24498241636344 266.0
18673.0 257.0 0 84.33319315182875 266.0
18694.0 257.0 0 83.42140388729408 266.0
18717.0 257.0 0 82.50961462275939 266.0
18740.0 257.0 0 81.5978253582247 266.0
18762.0 257.0 0 80.68603609369 266.0
18785.0 257.0 0 79.77424682915532 266.0
18806.0 257.0 0 78.86245756462063 266.0
18829.0 257.0 0 77.95066830008594 266.0
18851.0 257.0 0 77.03887903555125 267.0
18893.0 362.0 0 76.12708977101656 267.0
18916.0 331.0 0 75.21530050648187 267.0
18938.0 331.0 0 74.30351124194718 267.0
18961.0 328.0 0 73.39172197741249 267.0
18983.0 321.0 0 72.4799327128778 267.0
19005.0 284.0 0 71.56814344834311 267.0
19027.0 61.0 0 70.65635418380843 267.0
19049.0 340.0 0 69.74456491927374 267.0
19071.0 150.0 0 68.83277565473905 267.0
19093.0 166.0 0 67.92098639020436 267.0
19115.0 88.0 0 67.00919712566967 267.0
19137.0 260.0 0 66.09740786113498 267.0
19159.0 349.0 0 65.18561859660029 267.0
19182.0 220.0 0 64.2738293320656 267.0
19203.0 166.0 0 63.36204006753092 267.0
19226.0 540.0 500 62.45025080299623 267.0
19248.0 534.0 0 61.53846153846154 267.0
19271.0 280.0 0 62.30408089563019 267.0
19294.0 168.0 0 63.069700252798846 267.0
19315.0 348.0 0 63.8353196099675 267.0
19338.0 144.0 0 64.60093896713614 267.0
19360.0 144.0 0 65.3665583243048 266.0
19402.0 446.0 0 66.13217768147345 266.0
19425.0 328.0 0 66.89779703864211 266.0
19447.0 326.0 0 67.66341639581076 266.0
19470.0 329.0 0 68.42903575297942 265.0
19492.0 334.0 0 69.19465511014806 265.0
19514.0 338.0 0 69.96027446731672 265.0
19536.0 411.0 0 70.72589382448537 265.0
19559.0 409.0 0 71.49151318165403 265.0
19581.0 433.0 0 72.25713253882267 265.0
19604.0 531.0 0 73.02275189599133 264.0
19625.0 556.0 0 73.78837125315998 264.0
19648.0 560.0 0 74.55399061032864 264.0
19670.0 557.0 0 75.31960996749729 264.0
19693.0 564.0 0 76.08522932466595 264.0
19715.0 553.0 0 76.85084868183459 264.0
19737.0 562.0 0 77.61646803900325 263.0
19759.0 562.0 0 78.3820873961719 263.0
19782.0 562.0 0 79.14770675334056 263.0
19804.0 560.0 0 79.9133261105092 263.0
19827.0 557.0 0 80.67894546767786 263.0
19849.0 557.0 0 81.44456482484651 263.0
19892.0 559.0 0 82.21018418201515 263.0
19914.0 312.0 0 82.97580353918381 263.0
19936.0 317.0 500 83.74142289635247 263.0
19958.0 319.0 0 84.50704225352112 263.0
19981.0 312.0 0 84.694903640943 264.0
20003.0 323.0 0 84.88276502836487 264.0
20026.0 356.0 0 85.07062641578676 264.0
20047.0 519.0 0 85.25848780320864 264.0
20070.0 558.0 0 85.44634919063051 264.0
20092.0 560.0 0 85.63421057805239 264.0
20115.0 562.0 0 85.82207196547428 265.0
20137.0 563.0 0 86.00993335289616 265.0
20159.0 561.0 0 86.19779474031803 265.0
20181.0 558.0 0 86.3856561277399 265.0
20204.0 557.0 0 86.5735175151618 265.0
20226.0 562.0 0 86.76137890258367 266.0
20249.0 562.0 0 86.94924029000555 266.0
20271.0 561.0 0 87.13710167742742 266.0
20293.0 556.0 0 87.32496306484931 266.0
20315.0 562.0 0 87.51282445227119 266.0
20338.0 562.0 0 87.70068583969307 266.0
20361.0 562.0 0 87.88854722711494 267.0
20402.0 516.0 0 88.07640861453683 267.0
20425.0 323.0 0 88.2642700019587 267.0
20448.0 300.0 0 88.45213138938058 268.0
20470.0 300.0 0 88.63999277680246 268.0
20492.0 311.0 0 88.82785416422435 268.0
20514.0 326.0 0 89.01571555164622 268.0
20537.0 520.0 0 89.2035769390681 268.0
20559.0 559.0 0 89.39143832648998 269.0
20582.0 557.0 0 89.57929971391187 269.0
20603.0 562.0 500 89.76716110133374 269.0
20626.0 559.0 0 89.95502248875562 269.0
20648.0 556.0 0 89.85507246376811 270.0
20671.0 555.0 0 89.7551224387806 270.0
20693.0 556.0 0 89.6551724137931 270.0
20715.0 559.0 0 89.55522238880559 270.0
20737.0 556.0 0 89.45527236381808 270.0
20760.0 555.0 0 89.35532233883058 271.0
20782.0 553.0 0 89.25537231384307 271.0
20805.0 559.0 0 89.15542228885558 271.0
20826.0 561.0 0 89.05547226386807 271.0
20849.0 561.0 0 88.95552223888056 271.0
20892.0 540.0 0 88.85557221389305 270.0
20913.0 310.0 0 88.75562218890555 270.0
20936.0 297.0 0 88.65567216391804 269.0
20959.0 305.0 0 88.55572213893053 268.0
20981.0 299.0 0 88.45577211394303 268.0
21004.0 330.0 0 88.35582208895552 267.0
21025.0 335.0 0 88.25587206396801 266.0
21048.0 337.0 0 88.1559220389805 266.0
21070.0 358.0 0 88.055972013993 265.0
21093.0 330.0 0 87.95602198900549 265.0
21115.0 337.0 0 87.85607196401799 264.0
21137.0 339.0 0 87.75612193903048 263.0
21159.0 363.0 0 87.65617191404299 263.0
21182.0 391.0 0 87.55622188905548 262.0
21204.0 352.0 0 87.45627186406797 261.0
21227.0 329.0 0 87.35632183908046 261.0
21248.0 301.0 0 87.25637181409296 260.0
21271.0 249.0 0 87.15642178910545 260.0
21293.0 416.0 500 87.05647176411794 259.0
21316.0 561.0 0 86.95652173913044 258.0
21338.0 560.0 0 87.49163879598663 258.0
21360.0 560.0 0 88.02675585284281 258.0
21403.0 560.0 0 88.561872909699 258.0
21425.0 335.0 0 89.09698996655518 258.0
21447.0 316.0 0 89.63210702341138 259.0
21470.0 312.0 0 90.16722408026756 259.0
21492.0 315.0 0 90.70234113712375 259.0
21515.0 325.0 0 91.23745819397993 260.0
21537.0 295.0 0 91.77257525083613 260.0
21559.0 323.0 0 92.3076923076923 260.0
21581.0 289.0 0 92.8428093645485 260.0
21604.0 299.0 0 93.37792642140468 261.0
21626.0 277.0 0 93.91304347826087 261.0
21649.0 283.0 0 94.44816053511705 261.0
21671.0 327.0 0 94.98327759197325 261.0
21693.0 353.0 0 95.51839464882943 262.0
21715.0 342.0 0 96.05351170568562 262.0
21738.0 319.0 0 96.5886287625418 262.0
21760.0 305.0 0 97.123745819398 263.0
21783.0 324.0 0 97.65886287625418 263.0
21804.0 280.0 0 98.19397993311037 263.0
21827.0 236.0 0 98.72909698996656 263.0
21849.0 236.0 0 99.26421404682274 264.0
21891.0 535.0 500 99.79933110367892 264.0
21914.0 334.0 0 100.33444816053512 264.0
21936.0 332.0 0 101.1109200507652 264.0
21959.0 332.0 0 101.88739194099527 264.0
21982.0 328.0 0 102.66386383122536 264.0
22003.0 308.0 0 103.44033572145544 264.0
22026.0 318.0 0 104.21680761168551 264.0
22048.0 356.0 0 104.9932795019156 264.0
22071.0 287.0 0 105.76975139214568 264.0
22092.0 353.0 0 106.54622328237575 264.0
22115.0 347.0 0 107.32269517260583 264.0
22137.0 315.0 0 108.09916706283592 264.0
22160.0 312.0 0 108.87563895306599 264.0
22182.0 330.0 0 109.65211084329607 264.0
22204.0 342.0 0 110.42858273352616 264.0
22226.0 359.0 0 111.20505462375624 264.0
22249.0 340.0 0 111.98152651398631 264.0
22271.0 354.0 0 112.7579984042164 264.0
22294.0 364.0 0 113.53447029444648 264.0
22315.0 329.0 0 114.31094218467655 264.0
22338.0 300.0 0 115.08741407490663 264.0
22360.0 300.0 0 115.86388596513672 264.0
22402.0 455.0 500 116.64035785536679 264.0
22425.0 337.0 0 117.41682974559687 265.0
22447.0 336.0 0 117.65645592875116 265.0
22470.0 323.0 0 117.89608211190543 265.0
22492.0 327.0 0 118.13570829505971 266.0
22514.0 303.0 0 118.37533447821399 266.0
22537.0 225.0 0 118.61496066136827 266.0
22559.0 255.0 0 118.85458684452254 266.0
22582.0 267.0 0 119.09421302767683 267.0
22604.0 275.0 0 119.3338392108311 267.0
22626.0 309.0 0 119.57346539398539 267.0
22648.0 319.0 0 119.81309157713966 268.0
22671.0 276.0 0 120.05271776029394 268.0
22693.0 275.0 0 120.29234394344822 268.0
22716.0 278.0 0 120.5319701266025 269.0
22737.0 246.0 0 120.77159630975677 269.0
22760.0 271.0 0 121.01122249291106 269.0
22782.0 279.0 0 121.25084867606533 270.0
22805.0 293.0 0 121.49047485921962 270.0
22827.0 296.0 0 121.73010104237389 270.0
22849.0 296.0 0 121.96972722552817 270.0
22892.0 471.0 500 122.20935340868245 269.0
22914.0 339.0 0 122.44897959183673 268.0
22936.0 328.0 0 121.32849831242014 268.0
22958.0 334.0 0 120.20801703300356 267.0
22981.0 342.0 0 119.08753575358696 266.0
23003.0 340.0 0 117.96705447417037 266.0
23026.0 295.0 0 116.84657319475377 265.0
23047.0 236.0 0 115.7260919153372 264.0
23070.0 266.0 0 114.6056106359206 264.0
23093.0 267.0 0 113.48512935650402 263.0
23115.0 255.0 0 112.36464807708742 262.0
23138.0 245.0 0 111.24416679767083 262.0
23159.0 291.0 0 110.12368551825423 261.0
23182.0 271.0 0 109.00320423883765 260.0
23204.0 311.0 0 107.88272295942106 260.0
23227.0 310.0 0 106.76224168000446 259.0
23249.0 274.0 0 105.64176040058788 258.0
23272.0 283.0 0 104.52127912117129 258.0
23293.0 261.0 0 103.4007978417547 257.0
23316.0 275.0 0 102.2803165623381 256.0
23338.0 279.0 0 101.15983528292152 256.0
23361.0 279.0 0 100.03935400350493 255.0
23403.0 461.0 0 98.91887272408835 255.0
23425.0 336.0 0 97.79839144467175 255.0
23448.0 329.0 0 96.67791016525516 255.0
23470.0 330.0 0 95.55742888583856 255.0
23492.0 335.0 0 94.43694760642198 255.0
23514.0 364.0 0 93.31646632700539 255.0
23537.0 348.0 0 92.1959850475888 255.0
23559.0 557.0 500 91.07550376817221 255.0
23581.0 558.0 0 89.95502248875562 255.0
23604.0 556.0 0 90.33496818722342 254.0
23626.0 556.0 0 90.71491388569122 254.0
23649.0 560.0 0 91.09485958415902 254.0
23671.0 559.0 0 91.47480528262682 254.0
23693.0 556.0 0 91.85475098109463 254.0
23715.0 562.0 0 92.23469667956243 254.0
23738.0 561.0 0 92.61464237803023 254.0
23760.0 556.0 0 92.99458807649803 254.0
23783.0 558.0 0 93.37453377496584 254.0
23804.0 558.0 0 93.75447947343363 254.0
23827.0 562.0 0 94.13442517190144 254.0
23849.0 562.0 0 94.51437087036923 254.0
23891.0 553.0 0 94.89431656883704 254.0
23914.0 332.0 0 95.27426226730485 255.0
23936.0 312.0 0 95.65420796577264 255.0
23959.0 312.0 0 96.03415366424045 256.0
23981.0 314.0 0 96.41409936270824 256.0
24003.0 311.0 0 96.79404506117605 256.0
24025.0 314.0 0 97.17399075964386 257.0
24048.0 324.0 0 97.55393645811165 257.0
24070.0 259.0 0 97.93388215657946 258.0
24093.0 276.0 0 98.31382785504726 258.0
24114.0 273.0 0 98.69377355351506 258.0
24137.0 253.0 0 99.07371925198287 259.0
24160.0 461.0 500 99.45366495045066 259.0
24182.0 557.0 0 99.83361064891847 260.0
24205.0 554.0 0 100.63284788058567 260.0
24226.0 562.0 0 101.43208511225286 260.0
24249.0 562.0 0 102.23132234392007 261.0
24271.0 562.0 0 103.03055957558726 261.0
24294.0 559.0 0 103.82979680725447 262.0
24316.0 557.0 0 104.62903403892167 262.0
24338.0 557.0 0 105.42827127058887 262.0
24360.0 557.0 0 106.22750850225607 262.0
24403.0 548.0 0 107.02674573392326 262.0
24425.0 330.0 0 107.82598296559047 262.0
24447.0 315.0 0 108.62522019725768 262.0
24470.0 311.0 0 109.42445742892487 262.0
24492.0 306.0 0 110.22369466059207 262.0
24515.0 279.0 0 111.02293189225927 262.0
24536.0 264.0 0 111.82216912392647 262.0
24559.0 272.0 0 112.62140635559368 262.0
24581.0 235.0 0 113.42064358726087 262.0
24604.0 279.0 0 114.21988081892808 262.0
24626.0 291.0 0 115.01911805059527 262.0
24648.0 253.0 0 115.81835528226247 262.0
24671.0 304.0 500 116.61759251392968 262.0
24693.0 232.0 0 117.41682974559687 262.0
24716.0 201.0 0 116.40148614538133 262.0
24738.0 222.0 0 115.38614254516578 262.0
24760.0 476.0 0 114.37079894495022 262.0
24782.0 554.0 0 113.35545534473468 262.0
24805.0 555.0 0 112.34011174451913 262.0
24827.0 555.0 0 111.32476814430359 262.0
24850.0 555.0 0 110.30942454408803 262.0
24892.0 544.0 0 109.29408094387249 262.0
24914.0 333.0 0 108.27873734365694 262.0
24937.0 310.0 0 107.2633937434414 262.0
24958.0 322.0 0 106.24805014322584 262.0
24981.0 309.0 0 105.2327065430103 262.0
25003.0 331.0 0 104.21736294279475 262.0
25026.0 324.0 0 103.2020193425792 262.0
25048.0 333.0 0 102.18667574236366 262.0
25070.0 266.0 0 101.1713321421481 262.0
25092.0 276.0 0 100.15598854193256 262.0
25115.0 350.0 0 99.14064494171701 263.0
25137.0 398.0 0 98.12530134150147 263.0
25160.0 345.0 0 97.10995774128591 263.0
25183.0 359.0 0 96.09461414107037 263.0
25204.0 332.0 0 95.07927054085482 263.0
25227.0 311.0 0 94.06392694063928 263.0
25249.0 321.0 0 93.04858334042372 263.0
25272.0 288.0 0 92.03323974020817 263.0
25294.0 299.0 0 91.01789613999263 263.0
25316.0 342.0 0 90.00255253977708 263.0
25338.0 563.0 0 88.98720893956153 263.0
25361.0 563.0 500 87.97186533934598 263.0
25403.0 554.0 0 86.95652173913044 263.0
25425.0 336.0 0 86.96961562886679 263.0
25448.0 319.0 0 86.98270951860314 263.0
25470.0 323.0 0 86.9958034083395 263.0
25493.0 330.0 0 87.00889729807585 263.0
25514.0 332.0 0 87.0219911878122 262.0
25537.0 345.0 0 87.03508507754856 262.0
25559.0 515.0 0 87.04817896728491 262.0
25582.0 559.0 0 87.06127285702128 262.0
25604.0 555.0 0 87.07436674675763 262.0
25626.0 562.0 0 87.08746063649399 262.0
25648.0 558.0 0 87.10055452623034 262.0
25671.0 562.0 0 87.1136484159667 262.0
25694.0 556.0 0 87.12674230570305 261.0
25716.0 562.0 0 87.1398361954394 261.0
25738.0 559.0 0 87.15293008517575 261.0
25760.0 558.0 0 87.16602397491211 261.0
25783.0 561.0 0 87.17911786464846 261.0
25805.0 560.0 0 87.19221175438481 261.0
25828.0 561.0 0 87.20530564412117 261.0
25849.0 561.0 0 87.21839953385752 261.0
25892.0 546.0 0 87.23149342359388 261.0
25915.0 319.0 0 87.24458731333024 261.0
25936.0 302.0 0 87.2576812030666 262.0
25959.0 307.0 0 87.27077509280295 262.0
25981.0 302.0 0 87.2838689825393 262.0
26004.0 288.0 0 87.29696287227566 262.0
26026.0 237.0 0 87.31005676201201 263.0
26048.0 327.0 500 87.32315065174836 263.0
26070.0 293.0 0 87.33624454148472 263.0
26093.0 318.0 0 88.69311978959905 263.0
26115.0 279.0 0 90.04999503771337 264.0
26138.0 347.0 0 91.40687028582771 264.0
26159.0 477.0 0 92.76374553394204 264.0
26182.0 525.0 0 94.12062078205638 265.0
26204.0 560.0 0 95.4774960301707 265.0
26227.0 553.0 0 96.83437127828503 265.0
26250.0 564.0 0 98.19124652639937 265.0
26271.0 558.0 0 99.5481217745137 266.0
26294.0 557.0 0 100.90499702262802 266.0
26316.0 558.0 0 102.26187227074236 266.0
26339.0 554.0 0 103.6187475188567 266.0
26361.0 554.0 0 104.97562276697101 267.0
26403.0 561.0 0 106.33249801508535 268.0
26426.0 323.0 0 107.68937326319968 268.0
26448.0 315.0 0 109.04624851131402 269.0
26470.0 303.0 0 110.40312375942834 269.0
26492.0 311.0 0 111.75999900754267 270.0
26515.0 351.0 0 113.11687425565701 271.0
26537.0 421.0 0 114.47374950377133 271.0
26560.0 555.0 500 115.83062475188567 272.0
26581.0 563.0 0 117.1875 272.0
26604.0 556.0 0 115.90701520537125 273.0
26626.0 562.0 0 114.62653041074249 273.0
26649.0 560.0 0 113.34604561611374 274.0
26671.0 560.0 0 112.065560821485 274.0
26694.0 560.0 0 110.78507602685625 275.0
26715.0 566.0 0 109.50459123222748 275.0
26738.0 557.0 0 108.22410643759873 276.0
26761.0 556.0 0 106.94362164296999 276.0
26783.0 564.0 0 105.66313684834122 277.0
26806.0 556.0 0 104.38265205371248 278.0
26827.0 556.0 0 103.10216725908373 278.0
26850.0 556.0 0 101.82168246445498 278.0
26892.0 558.0 0 100.54119766982623 278.0
26914.0 312.0 0 99.26071287519747 277.0
26937.0 299.0 0 97.98022808056872 277.0
26959.0 307.0 0 96.69974328593997 276.0
26982.0 301.0 0 95.41925849131121 276.0
27004.0 279.0 0 94.13877369668246 275.0
27026.0 202.0 0 92.85828890205372 275.0
27048.0 119.0 0 91.57780410742495 274.0
27071.0 112.0 0 90.2973193127962 274.0
27093.0 152.0 0 89.01683451816746 274.0
27116.0 167.0 0 87.73634972353871 273.0
27137.0 161.0 0 86.45586492890996 273.0
27160.0 159.0 0 85.1753801342812 272.0
27182.0 183.0 0 83.89489533965245 272.0
27205.0 165.0 0 82.6144105450237 271.0
27227.0 190.0 0 81.33392575039494 271.0
27249.0 184.0 0 80.05344095576619 270.0
27271.0 218.0 0 78.77295616113744 270.0
27294.0 291.0 0 77.49247136650868 270.0
27317.0 217.0 0 76.21198657187995 269.0
27339.0 226.0 0 74.93150177725119 269.0
27361.0 226.0 0 73.65101698262242 268.0
27404.0 450.0 500 72.37053218799369 267.0
27426.0 332.0 0 71.09004739336493 267.0
27448.0 329.0 0 71.62313676665818 266.0
27470.0 322.0 0 72.15622613995143 266.0
27493.0 329.0 0 72.6893155132447 266.0
27515.0 379.0 0 73.22240488653794 265.0
27538.0 563.0 0 73.7554942598312 265.0
27559.0 561.0 0 74.28858363312445 264.0
27582.0 560.0 0 74.82167300641771 264.0
27604.0 562.0 0 75.35476237971096 263.0
27627.0 564.0 0 75.88785175300421 263.0
27649.0 559.0 0 76.42094112629746 262.0
27671.0 557.0 0 76.95403049959073 262.0
27693.0 564.0 0 77.48711987288398 262.0
27716.0 563.0 0 78.02020924617723 261.0
27738.0 560.0 0 78.55329861947048 261.0
27761.0 560.0 0 79.08638799276375 260.0
27782.0 562.0 0 79.619477366057 260.0
27805.0 566.0 0 80.15256673935025 259.0
27828.0 557.0 0 80.6856561126435 259.0
27850.0 557.0 0 81.21874548593675 259.0
27892.0 562.0 0 81.75183485923002 260.0
27915.0 324.0 0 82.28492423252327 260.0
27937.0 305.0 0 82.81801360581652 261.0
27960.0 298.0 0 83.35110297910977 261.0
27981.0 301.0 0 83.88419235240303 261.0
28004.0 298.0 0 84.41728172569628 262.0
28026.0 215.0 0 84.95037109898954 262.0
28049.0 296.0 0 85.48346047228279 263.0
28071.0 230.0 0 86.01654984557604 263.0
28093.0 536.0 500 86.5496392188693 264.0
28115.0 554.0 0 87.08272859216255 264.0
28138.0 558.0 0 86.91241373182073 265.0
28160.0 556.0 0 86.74209887147893 265.0
28183.0 559.0 0 86.57178401113711 266.0
28204.0 561.0 0 86.4014691507953 266.0
28227.0 556.0 0 86.23115429045347 267.0
28249.0 563.0 0 86.06083943011167 267.0
28272.0 560.0 0 85.89052456976985 268.0
28294.0 560.0 0 85.72020970942803 268.0
28317.0 561.0 0 85.54989484908623 269.0
28338.0 555.0 0 85.37957998874441 269.0
28361.0 555.0 0 85.20926512840259 270.0
28403.0 560.0 0 85.03895026806077 270.0
28426.0 310.0 0 84.86863540771897 270.0
28448.0 302.0 0 84.69832054737715 270.0
28471.0 305.0 0 84.52800568703533 270.0
28493.0 306.0 0 84.35769082669353 270.0
28515.0 386.0 0 84.18737596635171 271.0
28537.0 531.0 0 84.01706110600989 271.0
28560.0 561.0 0 83.84674624566807 271.0
28582.0 563.0 0 83.67643138532627 271.0
28605.0 564.0 0 83.50611652498445 271.0
28626.0 562.0 0 83.33580166464263 271.0
28649.0 558.0 0 83.16548680430081 271.0
28671.0 558.0 0 82.99517194395901 271.0
28694.0 561.0 0 82.82485708361719 272.0
28716.0 560.0 0 82.65454222327537 272.0
28739.0 561.0 0 82.48422736293357 272.0
28760.0 558.0 0 82.31391250259175 272.0
28783.0 564.0 0 82.14359764224993 272.0
28805.0 560.0 0 81.97328278190811 272.0
28828.0 555.0 500 81.8029679215663 272.0
28850.0 555.0 0 81.63265306122449 273.0
28892.0 545.0 0 81.07172693638859 273.0
28915.0 312.0 0 80.51080081155268 273.0
28938.0 303.0 0 79.9498746867168 273.0
28959.0 308.0 0 79.3889485618809 273.0
28982.0 309.0 0 78.828022437045 273.0
29004.0 325.0 0 78.26709631220909 273.0
29027.0 557.0 0 77.70617018737319 273.0
29049.0 555.0 0 77.1452440625373 273.0
29071.0 563.0 0 76.5843179377014 273.0
29093.0 561.0 0 76.0233918128655 273.0
29116.0 562.0 0 75.4624656880296 273.0
29138.0 563.0 0 74.9015395631937 273.0
29161.0 564.0 0 74.34061343835779 273.0
29182.0 562.0 0 73.7796873135219 273.0
29205.0 556.0 0 73.218761188686 273.0
29227.0 561.0 0 72.6578350638501 273.0
29250.0 563.0 0 72.0969089390142 273.0
29272.0 557.0 0 71.5359828141783 273.0
29294.0 563.0 0 70.97505668934241 273.0
29316.0 556.0 0 70.41413056450651 273.0
29339.0 562.0 0 69.8532044396706 273.0
29361.0 562.0 0 69.2922783148347 273.0
29403.0 560.0 0 68.7313521899988 272.0
29426.0 313.0 0 68.1704260651629 272.0
29449.0 300.0 0 67.60949994032701 271.0
29471.0 299.0 0 67.04857381549111 271.0
29493.0 306.0 0 66.48764769065521 270.0
29515.0 305.0 0 65.9267215658193 269.0
29538.0 201.0 0 65.36579544098342 269.0
29560.0 267.0 0 64.80486931614752 268.0
29583.0 156.0 0 64.24394319131162 268.0
29604.0 191.0 0 63.68301706647571 267.0
29627.0 82.0 0 63.12209094163981 267.0
29648.0 182.0 0 62.56116481680392 266.0
29671.0 198.0 0 62.000238691968015 266.0
29693.0 320.0 0 61.43931256713212 265.0
29715.0 197.0 0 60.87838644229622 265.0
29737.0 292.0 0 60.317460317460316 264.0
29760.0 304.0 0 59.756534192624414 264.0
29782.0 167.0 0 59.19560806778853 263.0
29805.0 213.0 0 58.634681942952625 262.0
29826.0 205.0 0 58.07375581811672 262.0
29849.0 205.0 0 57.51282969328082 261.0
29892.0 446.0 500 56.95190356844492 261.0
29913.0 331.0 0 56.390977443609025 261.0
29936.0 320.0 0 62.386293220246024 261.0
29958.0 321.0 0 68.38160899688302 261.0
29981.0 318.0 0 74.37692477352002 261.0
30004.0 290.0 0 80.37224055015702 261.0
30025.0 256.0 0 86.36755632679402 261.0
30048.0 256.0 0 92.36287210343102 261.0
30070.0 304.0 0 98.35818788006802 261.0
30093.0 241.0 0 104.35350365670502 261.0
30115.0 280.0 0 110.34881943334202 261.0
30137.0 287.0 0 116.34413520997902 261.0
30159.0 275.0 0 122.33945098661601 261.0
30182.0 302.0 0 128.33476676325301 261.0
30204.0 255.0 0 134.33008253989 261.0
30227.0 240.0 0 140.325398316527 261.0
30249.0 195.0 0 146.32071409316399 261.0
30271.0 444.0 500 152.31602986980099 261.0
30293.0 461.0 0 158.31134564643799 261.0
30316.0 380.0 0 156.21144245553424 261.0
30338.0 239.0 0 154.1115392646305 261.0
30361.0 239.0 0 152.01163607372678 261.0
30403.0 435.0 0 149.91173288282303 261.0
30425.0 340.0 0 147.81182969191929 261.0
30448.0 333.0 0 145.71192650101554 262.0
30469.0 328.0 0 143.6120233101118 262.0
30492.0 328.0 0 141.51212011920805 262.0
30514.0 323.0 0 139.4122169283043 262.0
30537.0 272.0 0 137.3123137374006 262.0
30560.0 282.0 0 135.21241054649684 263.0
30581.0 282.0 0 133.1125073555931 263.0
30604.0 287.0 0 131.01260416468935 263.0
30626.0 266.0 0 128.9127009737856 263.0
30649.0 292.0 0 126.81279778288187 264.0
30671.0 297.0 0 124.71289459197814 264.0
30693.0 312.0 0 122.6129914010744 264.0
30715.0 281.0 0 120.51308821017065 264.0
30738.0 262.0 0 118.4131850192669 264.0
30760.0 293.0 0 116.31328182836316 265.0
30783.0 278.0 0 114.21337863745943 265.0
30804.0 253.0 0 112.1134754465557 265.0
30827.0 560.0 500 110.01357225565195 265.0
30849.0 560.0 0 107.9136690647482 265.0
30891.0 553.0 0 107.0766866147484 264.0
30914.0 346.0 0 106.23970416474859 264.0
30936.0 326.0 0 105.40272171474878 263.0
30959.0 319.0 0 104.56573926474897 263.0
30981.0 335.0 0 103.72875681474916 262.0
31003.0 380.0 0 102.89177436474935 262.0
31025.0 489.0 0 102.05479191474954 261.0
31048.0 560.0 0 101.21780946474973 261.0
31071.0 556.0 0 100.38082701474991 260.0
31093.0 561.0 0 99.5438445647501 260.0
31115.0 556.0 0 98.7068621147503 259.0
31137.0 562.0 0 97.86987966475048 259.0
31160.0 556.0 0 97.03289721475068 258.0
31182.0 564.0 0 96.19591476475087 257.0
31205.0 560.0 0 95.35893231475106 257.0
31226.0 560.0 0 94.52194986475125 256.0
31249.0 558.0 0 93.68496741475144 256.0
31271.0 557.0 0 92.84798496475163 255.0
31294.0 555.0 0 92.01100251475182 255.0
31316.0 562.0 0 91.17402006475201 254.0
31338.0 562.0 0 90.3370376147522 254.0
31360.0 562.0 0 89.50005516475238 253.0
31403.0 557.0 0 88.66307271475259 253.0
31425.0 318.0 0 87.82609026475276 253.0
31447.0 311.0 0 86.98910781475297 252.0
31470.0 307.0 0 86.15212536475315 252.0
31492.0 317.0 0 85.31514291475334 252.0
31515.0 322.0 0 84.47816046475353 251.0
31536.0 245.0 0 83.64117801475372 251.0
31559.0 326.0 500 82.80419556475391 251.0
31582.0 315.0 0 81.9672131147541 251.0
31604.0 290.0 0 84.76552480003731 250.0
31627.0 334.0 0 87.56383648532052 250.0
31648.0 398.0 0 90.36214817060375 250.0
31671.0 436.0 0 93.16045985588696 250.0
31693.0 419.0 0 95.95877154117017 249.0
31716.0 468.0 0 98.75708322645337 249.0
31738.0 557.0 0 101.55539491173658 249.0
31760.0 558.0 0 104.3537065970198 249.0
31782.0 561.0 0 107.152018282303 248.0
31805.0 560.0 0 109.95032996758621 248.0
31827.0 556.0 0 112.74864165286944 248.0
31850.0 556.0 0 115.54695333815265 248.0
31892.0 566.0 0 118.34526502343586 249.0
31914.0 330.0 0 121.14357670871907 250.0
31936.0 315.0 0 123.94188839400229 250.0
31958.0 325.0 0 126.7402000792855 251.0
31981.0 313.0 0 129.5385117645687 252.0
32003.0 398.0 500 132.33682344985192 252.0
32026.0 563.0 0 135.13513513513513 253.0
32047.0 566.0 0 134.1448923275987 254.0
32070.0 559.0 0 133.15464952006232 254.0
32092.0 561.0 0 132.1644067125259 255.0
32115.0 562.0 0 131.17416390498948 256.0
32138.0 565.0 0 130.1839210974531 256.0
32159.0 556.0 0 129.19367828991668 257.0
32182.0 556.0 0 128.20343548238029 258.0
32204.0 562.0 0 127.21319267484387 258.0
32227.0 561.0 0 126.22294986730746 259.0
32249.0 559.0 0 125.23270705977104 260.0
32271.0 559.0 0 124.24246425223464 260.0
32293.0 561.0 0 123.25222144469824 261.0
32316.0 560.0 0 122.26197863716183 262.0
32338.0 561.0 0 121.27173582962541 262.0
32361.0 561.0 0 120.28149302208901 262.0
32403.0 553.0 0 119.2912502145526 262.0
32425.0 318.0 0 118.3010074070162 262.0
32448.0 296.0 0 117.31076459947978 262.0
32469.0 301.0 0 116.32052179194338 262.0
32492.0 307.0 0 115.33027898440697 262.0
32514.0 352.0 0 114.34003617687057 261.0
32537.0 464.0 500 113.34979336933415 261.0
32559.0 561.0 0 112.35955056179775 261.0
32581.0 564.0 0 112.58942688833407 261.0
32603.0 561.0 0 112.81930321487039 261.0
32626.0 560.0 0 113.04917954140672 261.0
32649.0 561.0 0 113.27905586794304 261.0
32671.0 560.0 0 113.50893219447937 261.0
32693.0 557.0 0 113.73880852101568 260.0
32715.0 560.0 0 113.96868484755201 260.0
32738.0 562.0 0 114.19856117408834 260.0
32760.0 564.0 0 114.42843750062467 260.0
32783.0 565.0 0 114.65831382716098 260.0
32804.0 561.0 0 114.88819015369731 260.0
32827.0 561.0 0 115.11806648023364 260.0
32849.0 561.0 0 115.34794280676995 260.0
32891.0 556.0 0 115.57781913330628 260.0
32914.0 324.0 0 115.8076954598426 260.0
32936.0 308.0 0 116.03757178637893 260.0
32959.0 302.0 0 116.26744811291525 260.0
32981.0 302.0 0 116.49732443945157 260.0
33003.0 303.0 0 116.7272007659879 260.0
33025.0 562.0 0 116.95707709252423 260.0
33048.0 561.0 500 117.18695341906054 260.0
33070.0 557.0 0 117.41682974559687 260.0
33093.0 556.0 0 117.21531344740649 260.0
33114.0 557.0 0 117.0137971492161 261.0
33137.0 558.0 0 116.81228085102572 261.0
33159.0 557.0 0 116.61076455283533 261.0
33182.0 559.0 0 116.40924825464495 261.0
33205.0 564.0 0 116.20773195645457 261.0
33226.0 563.0 0 116.00621565826418 261.0
33249.0 558.0 0 115.8046993600738 261.0
33271.0 558.0 0 115.60318306188341 261.0
33294.0 563.0 0 115.40166676369303 261.0
33316.0 559.0 0 115.20015046550265 261.0
33339.0 559.0 0 114.99863416731228 261.0
33360.0 559.0 0 114.79711786912189 261.0
33403.0 549.0 0 114.5956015709315 261.0
33425.0 310.0 0 114.39408527274112 260.0
33447.0 290.0 0 114.19256897455074 260.0
33470.0 303.0 0 113.99105267636035 260.0
33492.0 299.0 0 113.78953637816997 259.0
33515.0 278.0 0 113.58802007997959 259.0
33536.0 287.0 0 113.3865037817892 258.0
33559.0 89.0 0 113.18498748359882 258.0
33580.0 341.0 500 112.98347118540843 258.0
33603.0 554.0 0 112.78195488721805 257.0
33625.0 557.0 0 111.64511905415259 257.0
33647.0 561.0 0 110.50828322108713 257.0
33669.0 562.0 0 109.37144738802168 256.0
33692.0 561.0 0 108.23461155495622 256.0
33714.0 559.0 0 107.09777572189076 256.0
33737.0 559.0 0 105.9609398888253 255.0
33759.0 557.0 0 104.82410405575985 255.0
33781.0 559.0 0 103.68726822269439 255.0
33804.0 556.0 0 102.55043238962892 254.0
33826.0 560.0 0 101.41359655656346 254.0
33849.0 560.0 0 100.276760723498 253.0
33891.0 541.0 0 99.13992489043255 253.0
33913.0 312.0 0 98.00308905736709 253.0
33936.0 305.0 0 96.86625322430163 253.0
33957.0 305.0 0 95.72941739123618 252.0
33980.0 311.0 0 94.59258155817072 252.0
34002.0 302.0 0 93.45574572510526 252.0
34025.0 320.0 0 92.3189098920398 252.0
34047.0 240.0 0 91.18207405897434 252.0
34069.0 237.0 0 90.04523822590889 251.0
34091.0 222.0 0 88.90840239284343 251.0
34114.0 172.0 0 87.77156655977797 251.0
34136.0 230.0 0 86.6347307267125 251.0
34159.0 400.0 0 85.49789489364704 250.0
34180.0 281.0 0 84.3610590605816 250.0
34203.0 237.0 0 83.22422322751613 250.0
34225.0 188.0 0 82.08738739445067 250.0
34248.0 231.0 0 80.95055156138521 249.0
34271.0 220.0 0 79.81371572831975 249.0
34292.0 231.0 0 78.6768798952543 249.0
34315.0 268.0 0 77.54004406218884 249.0
34337.0 249.0 0 76.40320822912338 249.0
34360.0 249.0 0 75.26637239605793 249.0
34402.0 449.0 500 74.12953656299247 250.0
34424.0 329.0 0 72.99270072992701 250.0
34447.0 315.0 0 72.8126200537841 251.0
34468.0 325.0 0 72.63253937764118 251.0
34491.0 323.0 0 72.45245870149827 252.0
34513.0 328.0 0 72.27237802535537 252.0
34536.0 303.0 0 72.09229734921244 253.0
34558.0 312.0 0 71.91221667306954 254.0
34580.0 336.0 0 71.73213599692663 254.0
34602.0 381.0 0 71.55205532078371 255.0
34625.0 299.0 0 71.3719746446408 255.0
34647.0 288.0 0 71.19189396849788 256.0
34670.0 293.0 0 71.01181329235497 256.0
34691.0 242.0 0 70.83173261621207 257.0
34714.0 403.0 0 70.65165194006914 257.0
34736.0 559.0 0 70.47157126392624 258.0
34759.0 558.0 0 70.29149058778333 258.0
34782.0 561.0 0 70.11140991164041 259.0
34803.0 556.0 0 69.9313292354975 259.0
34826.0 561.0 0 69.7512485593546 260.0
34848.0 561.0 0 69.57116788321167 261.0
34890.0 561.0 0 69.39108720706876 261.0
34913.0 333.0 0 69.21100653092586 261.0
34935.0 317.0 0 69.03092585478294 261.0
34958.0 310.0 0 68.85084517864003 261.0
34980.0 312.0 0 68.67076450249712 261.0
35002.0 291.0 0 68.4906838263542 261.0
35024.0 243.0 0 68.31060315021129 261.0
35047.0 249.0 0 68.13052247406839 261.0
35069.0 272.0 0 67.95044179792546 261.0
35092.0 269.0 0 67.77036112178256 261.0
35113.0 275.0 0 67.59028044563965 261.0
35136.0 267.0 0 67.41019976949673 261.0
35158.0 290.0 0 67.23011909335382 261.0
35181.0 322.0 0 67.05003841721091 261.0
35203.0 285.0 0 66.86995774106799 261.0
35225.0 260.0 0 66.68987706492508 261.0
35247.0 248.0 0 66.50979638878216 261.0
35270.0 302.0 0 66.32971571263926 261.0
35292.0 226.0 0 66.14963503649635 261.0
35314.0 454.0 500 65.96955436035343 261.0
35337.0 555.0 0 65.78947368421052 261.0
35359.0 555.0 0 66.52808846494744 260.0
35401.0 559.0 0 67.26670324568437 259.0
35424.0 338.0 0 68.00531802642129 259.0
35446.0 315.0 0 68.74393280715823 258.0
35469.0 323.0 0 69.48254758789516 258.0
35491.0 329.0 0 70.22116236863208 257.0
35513.0 453.0 0 70.959777149369 257.0
35535.0 557.0 0 71.69839193010593 256.0
35558.0 560.0 0 72.43700671084287 255.0
35580.0 564.0 0 73.17562149157979 255.0
35603.0 560.0 0 73.91423627231671 254.0
35624.0 560.0 0 74.65285105305364 254.0
35647.0 558.0 0 75.39146583379056 253.0
35669.0 554.0 0 76.13008061452749 253.0
35692.0 558.0 0 76.86869539526442 252.0
35714.0 556.0 0 77.60731017600135 252.0
35736.0 558.0 0 78.34592495673827 251.0
35758.0 556.0 0 79.0845397374752 251.0
35781.0 556.0 0 79.82315451821212 250.0
35803.0 559.0 0 80.56176929894906 250.0
35826.0 561.0 0 81.30038407968598 249.0
35847.0 561.0 0 82.03899886042291 249.0
35890.0 525.0 0 82.77761364115983 249.0
35913.0 310.0 0 83.51622842189676 249.0
35935.0 311.0 0 84.25484320263368 249.0
35957.0 303.0 0 84.9934579833706 249.0
35980.0 302.0 0 85.73207276410753 249.0
36002.0 342.0 500 86.47068754484447 249.0
36025.0 416.0 0 87.20930232558139 250.0
36046.0 553.0 0 88.08008589985334 250.0
36069.0 561.0 0 88.95086947412528 250.0
36091.0 563.0 0 89.82165304839722 250.0
36114.0 562.0 0 90.69243662266918 250.0
36136.0 557.0 0 91.56322019694113 250.0
36158.0 559.0 0 92.43400377121307 250.0
36180.0 561.0 0 93.30478734548501 250.0
36203.0 556.0 0 94.17557091975696 251.0
36225.0 558.0 0 95.04635449402892 251.0
36248.0 562.0 0 95.91713806830086 251.0
36269.0 561.0 0 96.7879216425728 251.0
36292.0 561.0 0 97.65870521684475 251.0
36314.0 556.0 0 98.5294887911167 251.0
36337.0 561.0 0 99.40027236538864 251.0
36358.0 561.0 0 100.27105593966058 251.0
36401.0 556.0 0 101.14183951393254 251.0
36424.0 322.0 0 102.01262308820449 251.0
36446.0 293.0 0 102.88340666247643 251.0
36468.0 302.0 0 103.75419023674837 251.0
36491.0 302.0 0 104.62497381102033 251.0
36513.0 333.0 0 105.49575738529228 251.0
36536.0 563.0 0 106.36654095956422 251.0
36557.0 557.0 500 107.23732453383616 251.0
36580.0 561.0 0 108.10810810810811 251.0
36602.0 558.0 0 107.92886150399104 250.0
36625.0 558.0 0 107.74961489987398 250.0
36647.0 558.0 0 107.57036829575691 250.0
36669.0 558.0 0 107.39112169163982 250.0
36691.0 554.0 0 107.21187508752276 250.0
36714.0 564.0 0 107.03262848340569 250.0
36736.0 561.0 0 106.85338187928862 250.0
36759.0 562.0 0 106.67413527517155 250.0
36780.0 564.0 0 106.49488867105448 250.0
36803.0 556.0 0 106.3156420669374 250.0
36825.0 556.0 0 106.13639546282033 250.0
36848.0 556.0 0 105.95714885870326 250.0
36890.0 531.0 0 105.7779022545862 250.0
36912.0 299.0 0 105.59865565046913 250.0
36935.0 304.0 0 105.41940904635206 250.0
36958.0 296.0 0 105.24016244223498 250.0
36979.0 302.0 0 105.06091583811791 250.0
37002.0 324.0 0 104.88166923400084 250.0
37024.0 362.0 0 104.70242262988377 250.0
37047.0 302.0 0 104.5231760257667 250.0
37068.0 331.0 0 104.34392942164963 250.0
37091.0 267.0 0 104.16468281753255 250.0
37113.0 236.0 0 103.98543621341548 251.0
37136.0 561.0 500 103.80618960929841 251.0
37158.0 560.0 0 103.62694300518135 251.0
37180.0 560.0 0 104.54712760836944 251.0
37202.0 561.0 0 105.46731221155751 251.0
37225.0 560.0 0 106.3874968147456 251.0
37247.0 556.0 0 107.3076814179337 251.0
37270.0 562.0 0 108.22786602112177 251.0
37291.0 564.0 0 109.14805062430986 251.0
37314.0 560.0 0 110.06823522749795 251.0
37336.0 559.0 0 110.98841983068603 251.0
37359.0 559.0 0 111.90860443387412 251.0
37401.0 555.0 0 112.82878903706221 251.0
37423.0 304.0 0 113.74897364025028 251.0
37446.0 309.0 0 114.66915824343837 251.0
37468.0 310.0 0 115.58934284662647 251.0
37490.0 306.0 0 116.50952744981454 250.0
37513.0 301.0 0 117.42971205300263 250.0
37535.0 377.0 0 118.34989665619072 250.0
37558.0 384.0 0 119.2700812593788 250.0
37580.0 431.0 0 120.19026586256689 250.0
37602.0 375.0 0 121.11045046575498 249.0
37624.0 555.0 500 122.03063506894306 249.0
37647.0 563.0 0 122.95081967213115 249.0
37669.0 561.0 0 121.56805506475948 249.0
37692.0 558.0 0 120.18529045738781 249.0
37713.0 557.0 0 118.80252585001612 249.0
37736.0 565.0 0 117.41976124264446 248.0
37758.0 559.0 0 116.03699663527279 248.0
37781.0 560.0 0 114.65423202790112 248.0
37803.0 563.0 0 113.27146742052945 248.0
37825.0 562.0 0 111.88870281315778 248.0
37847.0 562.0 0 110.5059382057861 248.0
37889.0 549.0 0 109.12317359841443 248.0
37912.0 321.0 0 107.74040899104276 248.0
37934.0 303.0 0 106.35764438367109 248.0
37957.0 310.0 0 104.97487977629942 249.0
37979.0 311.0 0 103.59211516892773 249.0
38001.0 282.0 0 102.20935056155606 249.0
38023.0 268.0 0 100.8265859541844 249.0
38046.0 205.0 0 99.44382134681273 249.0
38069.0 187.0 0 98.06105673944106 250.0
38091.0 173.0 0 96.67829213206937 250.0
38113.0 231.0 0 95.2955275246977 250.0
38135.0 256.0 0 93.91276291732603 250.0
38158.0 171.0 0 92.52999830995437 251.0
38180.0 256.0 0 91.1472337025827 251.0
38203.0 197.0 0 89.76446909521101 251.0
38224.0 266.0 0 88.38170448783936 251.0
38247.0 252.0 0 86.99893988046767 252.0
38269.0 231.0 0 85.616175273096 252.0
38292.0 280.0 0 84.23341066572434 252.0
38314.0 302.0 0 82.85064605835265 252.0
38336.0 201.0 0 81.467881450981 252.0
38358.0 201.0 0 80.08511684360931 252.0
38400.0 459.0 500 78.70235223623764 252.0
38423.0 334.0 0 77.31958762886597 251.0
38445.0 330.0 0 84.10524696107093 251.0
38468.0 319.0 0 90.89090629327589 251.0
38490.0 329.0 0 97.67656562548083 250.0
38512.0 342.0 0 104.46222495768579 250.0
38534.0 257.0 0 111.24788428989075 250.0
38557.0 291.0 0 118.0335436220957 250.0
38580.0 369.0 0 124.81920295430066 249.0
38602.0 268.0 0 131.6048622865056 249.0
38624.0 314.0 0 138.39052161871058 249.0
38646.0 307.0 0 145.17618095091552 248.0
38669.0 371.0 0 151.96184028312047 248.0
38691.0 394.0 0 158.74749961532544 248.0
38714.0 282.0 0 165.5331589475304 247.0
38735.0 449.0 500 172.31881827973535 247.0
38758.0 282.0 0 179.1044776119403 247.0
38780.0 301.0 0 176.07525276003832 246.0
38803.0 281.0 0 173.04602790813635 246.0
38825.0 344.0 0 170.0168030562344 246.0
38847.0 344.0 0 166.98757820433244 246.0
38890.0 454.0 0 163.95835335243046 245.0
38911.0 341.0 0 160.9291285005285 245.0
38934.0 333.0 0 157.89990364862655 245.0
38956.0 329.0 0 154.87067879672458 245.0
38979.0 325.0 0 151.8414539448226 245.0
39001.0 347.0 0 148.81222909292063 245.0
39023.0 556.0 0 145.78300424101866 245.0
39045.0 556.0 0 142.75377938911672 245.0
39068.0 558.0 0 139.72455453721474 245.0
39090.0 557.0 0 136.69532968531277 245.0
39113.0 555.0 0 133.66610483341083 245.0
39135.0 562.0 0 130.63687998150886 245.0
39157.0 562.0 0 127.60765512960688 245.0
39180.0 562.0 0 124.57843027770491 245.0
39202.0 560.0 0 121.54920542580295 245.0
39225.0 558.0 0 118.519980573901 245.0
39246.0 562.0 0 115.49075572199902 245.0
39269.0 559.0 0 112.46153087009705 245.0
39291.0 562.0 0 109.43230601819509 245.0
39314.0 562.0 0 106.40308116629312 245.0
39336.0 558.0 0 103.37385631439115 245.0
39358.0 558.0 0 100.34463146248919 245.0
39401.0 547.0 0 97.31540661058722 245.0
39423.0 327.0 0 94.28618175868525 245.0
39445.0 311.0 0 91.25695690678329 245.0
39467.0 319.0 0 88.22773205488133 246.0
39490.0 303.0 0 85.19850720297936 246.0
39512.0 265.0 0 82.1692823510774 246.0
39535.0 195.0 0 79.14005749917543 246.0
39556.0 379.0 500 76.11083264727347 247.0
39579.0 557.0 0 73.0816077953715 247.0
39601.0 562.0 0 76.3316000521497 247.0
39624.0 557.0 0 79.5815923089279 247.0
39646.0 555.0 0 82.8315845657061 247.0
39668.0 562.0 0 86.0815768224843 248.0
39691.0 555.0 0 89.3315690792625 248.0
39713.0 557.0 0 92.58156133604069 248.0
39736.0 558.0 0 95.8315535928189 248.0
39757.0 561.0 0 99.0815458495971 249.0
39780.0 559.0 0 102.3315381063753 249.0
39802.0 562.0 0 105.5815303631535 249.0
39825.0 558.0 0 108.83152261993172 249.0
39847.0 558.0 0 112.0815148767099 250.0
39889.0 512.0 0 115.33150713348812 248.0
39912.0 306.0 0 118.58149939026632 248.0
39934.0 309.0 0 121.83149164704452 247.0
39956.0 300.0 0 125.08148390382271 247.0
39978.0 298.0 0 128.33147616060091 246.0
40001.0 345.0 500 131.5814684173791 245.0
40023.0 403.0 0 134.8314606741573 245.0
40046.0 555.0 0 133.14748422284083 244.0
40067.0 557.0 0 131.46350777152435 244.0
40090.0 554.0 0 129.77953132020787 243.0
40112.0 564.0 0 128.09555486889138 243.0
40135.0 553.0 0 126.41157841757489 242.0
40158.0 560.0 0 124.7276019662584 241.0
40179.0 563.0 0 123.04362551494192 241.0
40202.0 562.0 0 121.35964906362544 240.0
40224.0 557.0 0 119.67567261230896 240.0
40247.0 554.0 0 117.99169616099248 239.0
40268.0 562.0 0 116.307719709676 239.0
40291.0 558.0 0 114.6237432583595 238.0
40313.0 562.0 0 112.93976680704301 237.0
40336.0 562.0 0 111.25579035572653 237.0
40358.0 562.0 0 109.57181390441005 237.0
40400.0 529.0 0 107.88783745309357 237.0
40423.0 311.0 0 106.20386100177708 237.0
40445.0 304.0 0 104.5198845504606 237.0
40467.0 302.0 0 102.83590809914412 237.0
40489.0 312.0 0 101.15193164782764 237.0
40512.0 298.0 0 99.46795519651116 237.0
40534.0 294.0 0 97.78397874519467 237.0
40557.0 237.0 0 96.10000229387818 237.0
40578.0 253.0 0 94.4160258425617 237.0
40601.0 274.0 0 92.73204939124521 238.0
40623.0 280.0 0 91.04807293992873 238.0
40646.0 268.0 0 89.36409648861223 238.0
40668.0 288.0 0 87.68012003729575 238.0
40690.0 274.0 0 85.99614358597927 238.0
40713.0 272.0 0 84.31216713466279 238.0
40735.0 218.0 0 82.6281906833463 238.0
40758.0 307.0 500 80.94421423202982 238.0
40780.0 531.0 0 79.26023778071334 238.0
40802.0 558.0 0 79.7860787490289 238.0
40824.0 561.0 0 80.31191971734448 238.0
40847.0 561.0 0 80.83776068566004 239.0
40889.0 555.0 0 81.3636016539756 239.0
40911.0 328.0 0 81.88944262229117 239.0
40934.0 314.0 0 82.41528359060675 239.0
40956.0 311.0 0 82.94112455892231 240.0
40978.0 315.0 0 83.46696552723787 240.0
41000.0 339.0 0 83.99280649555344 240.0
41023.0 327.0 0 84.51864746386902 240.0
41045.0 275.0 0 85.04448843218458 240.0
41068.0 268.0 0 85.57032940050014 241.0
41089.0 285.0 0 86.0961703688157 241.0
41112.0 278.0 0 86.62201133713128 241.0
41134.0 320.0 0 87.14785230544685 241.0
41157.0 292.0 0 87.67369327376241 242.0
41179.0 300.0 0 88.19953424207797 242.0
41201.0 319.0 0 88.72537521039355 242.0
41223.0 339.0 0 89.25121617870911 242.0
41246.0 328.0 0 89.77705714702468 242.0
41269.0 268.0 0 90.30289811534024 243.0
41291.0 293.0 0 90.82873908365582 243.0
41313.0 290.0 0 91.35458005197138 243.0
41335.0 234.0 0 91.88042102028695 243.0
41358.0 234.0 0 92.40626198860252 243.0
41400.0 536.0 500 92.93210295691809 243.0
41422.0 337.0 0 93.45794392523365 243.0
41445.0 326.0 0 93.8718753031724 243.0
41467.0 324.0 0 94.28580668111115 242.0
41489.0 333.0 0 94.6997380590499 242.0
41511.0 347.0 0 95.11366943698866 242.0
41534.0 404.0 0 95.52760081492741 242.0
41556.0 563.0 0 95.94153219286616 241.0
41579.0 559.0 0 96.3554635708049 241.0
41600.0 560.0 0 96.76939494874365 241.0
41623.0 562.0 0 97.1833263266824 241.0
41645.0 565.0 0 97.59725770462116 241.0
41668.0 556.0 0 98.01118908255991 240.0
41690.0 563.0 0 98.42512046049866 240.0
41712.0 556.0 0 98.83905183843741 240.0
41734.0 562.0 0 99.25298321637617 240.0
41757.0 560.0 0 99.66691459431492 239.0
41780.0 555.0 0 100.08084597225367 239.0
41802.0 562.0 0 100.49477735019242 239.0
41824.0 558.0 0 100.90870872813117 239.0
41846.0 562.0 0 101.32264010606991 239.0
41869.0 562.0 0 101.73657148400866 238.0
41911.0 546.0 0 102.15050286194742 238.0
41933.0 320.0 0 102.56443423988617 238.0
41956.0 305.0 0 102.97836561782492 238.0
41978.0 311.0 500 103.39229699576367 238.0
42001.0 307.0 0 103.80622837370242 238.0
42022.0 344.0 0 103.80622837370242 238.0
42045.0 562.0 0 103.80622837370242 238.0
42067.0 563.0 0 103.80622837370242 238.0
42090.0 560.0 0 103.80622837370242 238.0
42111.0 556.0 0 103.80622837370242 238.0
42134.0 558.0 0 103.80622837370242 238.0
42156.0 556.0 0 103.80622837370242 238.0
42179.0 559.0 0 103.80622837370242 238.0
42201.0 562.0 0 103.80622837370242 238.0
42223.0 563.0 0 103.80622837370242 238.0
42245.0 560.0 0 103.80622837370242 238.0
42268.0 559.0 0 103.80622837370242 238.0
42290.0 557.0 0 103.80622837370242 238.0
42313.0 563.0 0 103.80622837370242 238.0
42335.0 558.0 0 103.80622837370242 238.0
42357.0 558.0 0 103.80622837370242 237.0
42400.0 525.0 0 103.80622837370242 237.0
42422.0 313.0 0 103.80622837370242 237.0
42444.0 301.0 0 103.80622837370242 237.0
42467.0 295.0 0 103.80622837370242 237.0
42489.0 303.0 0 103.80622837370242 237.0
42512.0 284.0 0 103.80622837370242 237.0
42533.0 263.0 0 103.80622837370242 237.0
42556.0 561.0 500 103.80622837370242 237.0
42578.0 563.0 0 103.80622837370242 237.0
42601.0 560.0 0 102.89978806399401 237.0
42623.0 557.0 0 101.99334775428558 237.0
42645.0 561.0 0 101.08690744457716 237.0
42667.0 558.0 0 100.18046713486875 237.0
42690.0 559.0 0 99.27402682516032 237.0
42712.0 559.0 0 98.3675865154519 237.0
42734.0 558.0 0 97.46114620574347 237.0
42756.0 556.0 0 96.55470589603506 237.0
42779.0 560.0 0 95.64826558632664 237.0
42801.0 558.0 0 94.74182527661821 237.0
42824.0 556.0 0 93.8353849669098 237.0
42846.0 558.0 0 92.92894465720138 237.0
42868.0 558.0 0 92.02250434749295 236.0
42911.0 468.0 0 91.11606403778454 236.0
42933.0 301.0 0 90.20962372807611 236.0
42955.0 298.0 0 89.3031834183677 236.0
42978.0 299.0 0 88.39674310865928 236.0
43000.0 305.0 0 87.49030279895086 236.0
43023.0 272.0 0 86.58386248924243 236.0
43044.0 147.0 0 85.67742217953402 236.0
43067.0 152.0 0 84.77098186982559 236.0
43089.0 179.0 0 83.86454156011717 236.0
43112.0 180.0 0 82.95810125040876 235.0
43134.0 281.0 0 82.05166094070034 235.0
43156.0 213.0 0 81.14522063099191 235.0
43178.0 165.0 0 80.2387803212835 235.0
43201.0 136.0 0 79.33234001157507 235.0
43223.0 280.0 0 78.42589970186665 235.0
43246.0 123.0 0 77.51945939215824 235.0
43267.0 188.0 0 76.61301908244981 235.0
43290.0 251.0 0 75.7065787727414 235.0
43312.0 142.0 0 74.80013846303297 235.0
43335.0 213.0 0 73.89369815332455 235.0
43358.0 213.0 0 72.98725784361613 235.0
43399.0 454.0 500 72.08081753390772 236.0
43422.0 321.0 0 71.17437722419929 237.0
43445.0 324.0 0 71.11833780175883 237.0
43466.0 320.0 0 71.06229837931835 238.0
43489.0 324.0 0 71.00625895687789 239.0
43511.0 294.0 0 70.95021953443741 239.0
43534.0 381.0 0 70.89418011199695 240.0
43555.0 368.0 0 70.83814068955647 241.0
43578.0 369.0 0 70.782101267116 241.0
43600.0 558.0 0 70.72606184467553 242.0
43623.0 560.0 0 70.67002242223506 243.0
43645.0 561.0 0 70.6139829997946 243.0
43667.0 557.0 0 70.55794357735412 244.0
43689.0 563.0 0 70.50190415491366 245.0
43712.0 559.0 0 70.44586473247318 245.0
43734.0 560.0 0 70.38982531003272 246.0
43757.0 562.0 0 70.33378588759224 247.0
43778.0 561.0 0 70.27774646515178 247.0
43801.0 559.0 0 70.2217070427113 248.0
43823.0 559.0 0 70.16566762027084 249.0
43846.0 566.0 0 70.10962819783038 249.0
43868.0 566.0 0 70.0535887753899 249.0
43910.0 560.0 0 69.99754935294943 249.0
43933.0 320.0 0 69.94150993050896 249.0
43956.0 313.0 0 69.8854705080685 249.0
43977.0 309.0 0 69.82943108562802 248.0
44000.0 303.0 0 69.77339166318755 248.0
44022.0 325.0 0 69.71735224074708 248.0
44045.0 269.0 0 69.66131281830661 248.0
44067.0 321.0 0 69.60527339586613 248.0
44089.0 332.0 0 69.54923397342567 248.0
44111.0 313.0 0 69.49319455098521 247.0
44134.0 344.0 0 69.43715512854473 247.0
44156.0 341.0 0 69.38111570610427 247.0
44178.0 348.0 0 69.32507628366379 247.0
44200.0 308.0 0 69.26903686122333 247.0
44223.0 328.0 0 69.21299743878285 246.0
44245.0 273.0 0 69.15695801634239 246.0
44268.0 556.0 500 69.10091859390191 246.0
44289.0 558.0 0 69.04487917146145 246.0
44312.0 559.0 0 70.67251371048839 246.0
44334.0 555.0 0 72.30014824951533 246.0
44357.0 555.0 0 73.92778278854227 246.0
44399.0 557.0 0 75.55541732756922 246.0
44421.0 335.0 0 77.18305186659617 247.0
44444.0 320.0 0 78.81068640562312 247.0
44466.0 318.0 0 80.43832094465006 248.0
44488.0 314.0 0 82.065955483677 248.0
44511.0 325.0 0 83.69359002270394 248.0
44533.0 247.0 0 85.32122456173089 249.0
44556.0 372.0 0 86.94885910075783 249.0
44578.0 242.0 0 88.57649363978479 250.0
44600.0 320.0 0 90.20412817881171 250.0
44622.0 249.0 0 91.83176271783867 250.0
44645.0 319.0 0 93.45939725686561 251.0
44667.0 301.0 0 95.08703179589256 251.0
44690.0 325.0 0 96.7146663349195 252.0
44711.0 258.0 0 98.34230087394644 252.0
44734.0 335.0 0 99.96993541297338 252.0
44756.0 300.0 0 101.59756995200033 253.0
44779.0 237.0 0 103.22520449102728 253.0
44801.0 200.0 0 104.85283903005421 254.0
44823.0 469.0 500 106.48047356908117 254.0
44845.0 555.0 0 108.10810810810811 254.0
44868.0 555.0 0 106.9790931203521 254.0
44910.0 554.0 0 105.85007813259608 253.0
44932.0 332.0 0 104.72106314484007 253.0
44955.0 328.0 0 103.59204815708406 252.0
44977.0 325.0 0 102.46303316932804 252.0
44999.0 315.0 0 101.33401818157203 251.0
45022.0 344.0 0 100.20500319381603 251.0
45044.0 371.0 0 99.07598820606 251.0
45067.0 555.0 0 97.946973218304 250.0
45089.0 561.0 0 96.81795823054799 250.0
45111.0 562.0 0 95.68894324279196 249.0
45133.0 563.0 0 94.55992825503596 249.0
45156.0 559.0 0 93.43091326727995 248.0
45178.0 559.0 0 92.30189827952393 248.0
45201.0 556.0 0 91.17288329176792 247.0
45222.0 557.0 0 90.04386830401191 247.0
45245.0 558.0 0 88.91485331625589 247.0
45267.0 562.0 0 87.78583832849988 246.0
45290.0 563.0 0 86.65682334074387 246.0
45312.0 562.0 0 85.52780835298785 245.0
45334.0 557.0 0 84.39879336523184 245.0
45356.0 557.0 0 83.26977837747583 245.0
45399.0 559.0 0 82.14076338971981 247.0
45421.0 323.0 0 81.0117484019638 247.0
45443.0 304.0 0 79.88273341420779 248.0
45466.0 310.0 0 78.75371842645177 249.0
45488.0 311.0 0 77.62470343869576 250.0
45510.0 293.0 0 76.49568845093975 251.0
45532.0 328.0 0 75.36667346318373 252.0
45555.0 287.0 0 74.23765847542772 253.0
45578.0 301.0 0 73.10864348767171 254.0
45600.0 372.0 0 71.97962849991569 255.0
45622.0 400.0 0 70.85061351215968 256.0
45644.0 377.0 0 69.72159852440367 256.0
45667.0 330.0 0 68.59258353664765 257.0
45689.0 317.0 0 67.46356854889164 258.0
45712.0 320.0 0 66.33455356113564 259.0
45733.0 320.0 0 65.20553857337961 260.0
45756.0 300.0 0 64.0765235856236 261.0
45778.0 342.0 0 62.94750859786758 262.0
45801.0 360.0 0 61.818493610111574 263.0
45823.0 336.0 0 60.68947862235556 264.0
45845.0 400.0 0 59.56046363459954 264.0
45867.0 400.0 0 58.431448646843535 264.0
45910.0 532.0 0 57.30243365908752 263.0
45932.0 337.0 0 56.17341867133151 262.0
45954.0 312.0 0 55.044403683575496 262.0
45977.0 329.0 0 53.91538869581948 261.0
45999.0 316.0 0 52.78637370806347 261.0
46022.0 310.0 0 51.65735872030746 260.0
46043.0 302.0 0 50.52834373255144 260.0
46066.0 465.0 500 49.39932874479543 259.0
46089.0 562.0 0 48.27031375703942 259.0
46111.0 559.0 0 51.81455531637409 258.0
46134.0 562.0 0 55.358796875708755 258.0
46155.0 558.0 0 58.90303843504343 257.0
46178.0 563.0 0 62.44727999437809 257.0
46200.0 561.0 0 65.99152155371277 256.0
46223.0 559.0 0 69.53576311304744 255.0
46245.0 558.0 0 73.0800046723821 255.0
46267.0 557.0 0 76.62424623171677 254.0
46289.0 559.0 0 80.16848779105145 254.0
46312.0 560.0 0 83.71272935038611 253.0
46334.0 562.0 0 87.25697090972079 253.0
46357.0 562.0 0 90.80121246905546 252.0
46399.0 554.0 0 94.34545402839012 252.0
46421.0 318.0 0 97.88969558772479 251.0
46444.0 304.0 0 101.43393714705947 251.0
46465.0 311.0 0 104.97817870639413 250.0
46488.0 302.0 0 108.52242026572881 250.0
46510.0 314.0 0 112.06666182506348 250.0
46533.0 285.0 0 115.61090338439814 249.0
46555.0 465.0 500 119.15514494373281 249.0
46577.0 556.0 0 122.69938650306749 248.0
46599.0 555.0 0 121.81993358560021 248.0
46622.0 565.0 0 120.94048066813295 248.0
46645.0 555.0 0 120.06102775066567 247.0
46667.0 564.0 0 119.18157483319841 247.0
46689.0 563.0 0 118.30212191573114 246.0
46711.0 563.0 0 117.42266899826387 246.0
46734.0 560.0 0 116.5432160807966 246.0
46756.0 558.0 0 115.66376316332932 245.0
46779.0 563.0 0 114.78431024586206 245.0
46800.0 560.0 0 113.90485732839478 244.0
46823.0 561.0 0 113.02540441092752 244.0
46845.0 562.0 0 112.14595149346025 244.0
46868.0 562.0 0 111.26649857599298 244.0
46910.0 556.0 0 110.38704565852571 246.0
46932.0 315.0 0 109.50759274105843 247.0
46955.0 311.0 0 108.62813982359117 248.0
46976.0 306.0 0 107.7486869061239 249.0
46999.0 299.0 0 106.86923398865663 250.0
47021.0 315.0 0 105.98978107118936 250.0
47044.0 281.0 0 105.1103281537221 251.0
47066.0 295.0 0 104.23087523625482 252.0
47088.0 317.0 0 103.35142231878754 253.0
47110.0 292.0 0 102.47196940132028 254.0
47133.0 285.0 0 101.592516483853 255.0
47156.0 557.0 500 100.71306356638573 256.0
47178.0 562.0 0 99.83361064891847 257.0
47200.0 562.0 0 99.99971163024075 258.0
47222.0 562.0 0 100.16581261156304 259.0
47245.0 561.0 0 100.33191359288534 259.0
47267.0 560.0 0 100.49801457420763 260.0
47290.0 562.0 0 100.66411555552992 261.0
47311.0 556.0 0 100.8302165368522 262.0
47334.0 560.0 0 100.99631751817451 263.0
47356.0 560.0 0 101.1624184994968 263.0
47398.0 554.0 0 101.32851948081908 262.0
47421.0 322.0 0 101.49462046214137 262.0
47443.0 302.0 0 101.66072144346367 261.0
47466.0 303.0 0 101.82682242478596 261.0
47488.0 302.0 0 101.99292340610825 260.0
47510.0 298.0 0 102.15902438743053 260.0
47532.0 310.0 0 102.32512536875284 259.0
47555.0 328.0 0 102.49122635007512 259.0
47577.0 296.0 0 102.65732733139741 258.0
47600.0 291.0 0 102.8234283127197 257.0
47621.0 276.0 0 102.989529294042 257.0
47644.0 282.0 0 103.15563027536429 256.0
47666.0 285.0 0 103.32173125668658 256.0
47689.0 298.0 0 103.48783223800886 255.0
47712.0 281.0 0 103.65393321933117 255.0
47733.0 555.0 500 103.82003420065345 254.0
47756.0 562.0 0 103.98613518197574 254.0
47778.0 560.0 0 106.71494722124918 253.0
47801.0 559.0 0 109.4437592605226 253.0
47823.0 561.0 0 112.17257129979603 252.0
47845.0 556.0 0 114.90138333906945 252.0
47867.0 556.0 0 117.63019537834289 252.0
47910.0 560.0 0 120.35900741761631 252.0
47932.0 330.0 0 123.08781945688975 252.0
47954.0 313.0 0 125.81663149616318 252.0
47977.0 312.0 0 128.54544353543662 252.0
47999.0 311.0 0 131.27425557471003 252.0
48022.0 334.0 0 134.00306761398346 252.0
48043.0 336.0 0 136.7318796532569 252.0
48066.0 350.0 0 139.46069169253033 252.0
48088.0 370.0 0 142.18950373180377 252.0
48111.0 335.0 0 144.91831577107718 252.0
48132.0 378.0 500 147.6471278103506 252.0
48155.0 532.0 0 150.37593984962405 252.0
48177.0 565.0 0 148.1560878124266 252.0
48200.0 558.0 0 145.93623577522914 252.0
48223.0 556.0 0 143.71638373803168 252.0
48244.0 558.0 0 141.49653170083423 252.0
48267.0 560.0 0 139.27667966363677 252.0
48289.0 560.0 0 137.05682762643931 252.0
48312.0 558.0 0 134.83697558924186 252.0
48334.0 564.0 0 132.6171235520444 252.0
48356.0 564.0 0 130.39727151484692 252.0
48399.0 555.0 0 128.17741947764947 252.0
48420.0 316.0 0 125.95756744045202 252.0
48443.0 308.0 0 123.73771540325455 252.0
48465.0 301.0 0 121.5178633660571 252.0
48488.0 309.0 0 119.29801132885964 252.0
48510.0 304.0 0 117.07815929166219 252.0
48532.0 292.0 0 114.85830725446473 252.0
48554.0 299.0 0 112.63845521726728 252.0
48577.0 287.0 0 110.41860318006982 252.0
48599.0 257.0 0 108.19875114287237 252.0
48622.0 288.0 0 105.97889910567491 252.0
48643.0 310.0 0 103.75904706847746 252.0
48666.0 262.0 0 101.53919503128 252.0
48688.0 266.0 0 99.31934299408253 252.0
48711.0 338.0 0 97.09949095688508 252.0
48732.0 339.0 0 94.87963891968762 252.0
48755.0 311.0 0 92.65978688249017 252.0
48778.0 312.0 0 90.4399348452927 252.0
48800.0 333.0 0 88.22008280809524 252.0
48823.0 267.0 0 86.0002307708978 252.0
48844.0 266.0 0 83.78037873370035 252.0
48867.0 266.0 0 81.56052669650288 251.0
48910.0 437.0 500 79.34067465930542 249.0
48931.0 327.0 0 77.12082262210797 248.0
48954.0 325.0 0 79.30320343401382 248.0
48976.0 327.0 0 81.4855842459197 247.0
48999.0 329.0 0 83.66796505782557 246.0
49021.0 297.0 0 85.85034586973143 245.0
49043.0 249.0 0 88.0327266816373 244.0
49065.0 256.0 0 90.21510749354316 244.0
49088.0 238.0 0 92.39748830544903 243.0
49110.0 218.0 0 94.57986911735489 242.0
49133.0 220.0 0 96.76224992926076 241.0
49154.0 257.0 0 98.94463074116662 240.0
49177.0 228.0 0 101.12701155307249 240.0
49199.0 217.0 0 103.30939236497835 239.0
49222.0 255.0 0 105.49177317688422 238.0
49243.0 272.0 0 107.67415398879008 237.0
49266.0 206.0 0 109.85653480069595 236.0
49289.0 310.0 0 112.03891561260181 236.0
49311.0 265.0 0 114.22129642450768 235.0
49334.0 300.0 0 116.40367723641356 234.0
49355.0 300.0 0 118.58605804831942 234.0
49398.0 472.0 500 120.76843886022527 234.0
49421.0 344.0 0 122.95081967213115 235.0
49442.0 325.0 0 122.69927467547049 235.0
49465.0 331.0 0 122.44772967880985 235.0
49487.0 329.0 0 122.1961846821492 236.0
49510.0 326.0 0 121.94463968548855 236.0
49532.0 186.0 0 121.6930946888279 236.0
49554.0 265.0 0 121.44154969216726 237.0
49576.0 188.0 0 121.1900046955066 237.0
49599.0 239.0 0 120.93845969884596 238.0
49621.0 202.0 0 120.6869147021853 238.0
49644.0 154.0 0 120.43536970552466 238.0
49665.0 245.0 0 120.18382470886401 239.0
49688.0 279.0 0 119.93227971220335 239.0
49710.0 231.0 0 119.68073471554271 239.0
49733.0 303.0 0 119.42918971888206 240.0
49755.0 190.0 0 119.17764472222142 240.0
49777.0 192.0 0 118.92609972556076 240.0
49799.0 208.0 0 118.67455472890012 241.0
49822.0 221.0 0 118.42300973223946 241.0
49845.0 223.0 0 118.17146473557882 241.0
49866.0 223.0 0 117.91991973891817 242.0
49909.0 498.0 500 117.66837474225753 243.0
49932.0 351.0 0 117.41682974559687 243.0
49953.0 335.0 0 116.08295138081695 244.0
49976.0 330.0 0 114.74907301603702 244.0
49998.0 338.0 0 113.4151946512571 245.0
50021.0 424.0 0 112.08131628647718 245.0
50043.0 559.0 0 110.74743792169724 245.0
50065.0 564.0 0 109.41355955691732 246.0
50087.0 565.0 0 108.07968119213739 246.0
50110.0 563.0 0 106.74580282735747 247.0
50132.0 563.0 0 105.41192446257753 247.0
50155.0 556.0 0 104.07804609779761 248.0
50176.0 564.0 0 102.74416773301769 248.0
50199.0 561.0 0 101.41028936823776 249.0
50221.0 563.0 0 100.07641100345784 249.0
50244.0 563.0 0 98.74253263867791 249.0
50266.0 563.0 0 97.40865427389798 250.0
50288.0 558.0 0 96.07477590911806 250.0
50310.0 560.0 0 94.74089754433814 251.0
50333.0 558.0 0 93.4070191795582 251.0
50356.0 558.0 0 92.07314081477828 252.0
50398.0 560.0 0 90.73926244999835 252.0
50420.0 317.0 0 89.40538408521843 252.0
50443.0 301.0 0 88.0715057204385 252.0
50464.0 309.0 0 86.73762735565857 252.0
50487.0 309.0 0 85.40374899087865 252.0
50509.0 382.0 0 84.06987062609872 252.0
50532.0 222.0 0 82.7359922613188 252.0
50554.0 346.0 0 81.40211389653888 252.0
50576.0 213.0 0 80.06823553175894 252.0
50598.0 276.0 0 78.73435716697902 252.0
50621.0 229.0 0 77.4004788021991 252.0
50643.0 185.0 0 76.06660043741917 252.0
50666.0 335.0 0 74.73272207263925 252.0
50687.0 438.0 0 73.39884370785931 252.0
50710.0 205.0 0 72.0649653430794 252.0
50732.0 214.0 0 70.73108697829946 252.0
50755.0 123.0 0 69.39720861351954 252.0
50777.0 220.0 0 68.06333024873962 252.0
50799.0 299.0 0 66.72945188395968 252.0
50821.0 212.0 0 65.39557351917978 252.0
50844.0 238.0 0 64.06169515439984 252.0
50866.0 238.0 0 62.72781678961991 253.0
50908.0 450.0 500 61.39393842483999 253.0
50931.0 338.0 0 60.06006006006006 253.0
50954.0 331.0 0 60.73420359134645 253.0
50975.0 323.0 0 61.40834712263284 253.0
50998.0 325.0 0 62.08249065391922 253.0
51020.0 333.0 0 62.75663418520561 254.0
51043.0 353.0 0 63.430777716492 254.0
51065.0 374.0 0 64.10492124777839 254.0
51087.0 500.0 0 64.77906477906478 254.0
51109.0 563.0 0 65.45320831035117 254.0
51132.0 558.0 0 66.12735184163756 254.0
51154.0 557.0 0 66.80149537292394 254.0
51177.0 556.0 0 67.47563890421033 254.0
51198.0 561.0 0 68.14978243549672 255.0
51221.0 558.0 0 68.82392596678311 255.0
51243.0 562.0 0 69.4980694980695 255.0
51266.0 562.0 0 70.17221302935589 255.0
51288.0 556.0 0 70.84635656064228 255.0
51310.0 560.0 0 71.52050009192867 255.0
51332.0 559.0 0 72.19464362321506 255.0
51355.0 559.0 0 72.86878715450143 256.0
51397.0 560.0 0 73.54293068578782 256.0
51419.0 314.0 0 74.21707421707421 256.0
51442.0 303.0 0 74.8912177483606 256.0
51465.0 316.0 0 75.565361279647 256.0
51487.0 312.0 0 76.23950481093338 257.0
51509.0 334.0 0 76.91364834221977 257.0
51531.0 416.0 0 77.58779187350616 257.0
51554.0 561.0 0 78.26193540479255 257.0
51576.0 561.0 0 78.93607893607893 257.0
51599.0 560.0 0 79.61022246736532 258.0
51620.0 562.0 0 80.28436599865171 258.0
51643.0 558.0 500 80.9585095299381 258.0
51665.0 561.0 0 81.63265306122449 258.0
51688.0 556.0 0 81.56837005359172 258.0
51710.0 556.0 0 81.50408704595897 258.0
51732.0 562.0 0 81.4398040383262 259.0
51754.0 559.0 0 81.37552103069345 259.0
51777.0 560.0 0 81.31123802306068 259.0
51799.0 562.0 0 81.24695501542791 259.0
51822.0 564.0 0 81.18267200779516 259.0
51844.0 558.0 0 81.1183890001624 259.0
51866.0 558.0 0 81.05410599252964 259.0
51909.0 553.0 0 80.98982298489688 259.0
51930.0 310.0 0 80.92553997726411 259.0
51953.0 305.0 0 80.86125696963136 258.0
51975.0 306.0 0 80.79697396199859 258.0
51998.0 307.0 0 80.73269095436584 258.0
52021.0 318.0 0 80.66840794673307 257.0
52043.0 375.0 0 80.6041249391003 257.0
52065.0 488.0 0 80.53984193146755 257.0
52087.0 560.0 0 80.47555892383478 257.0
52110.0 558.0 0 80.41127591620203 256.0
52132.0 558.0 0 80.34699290856926 256.0
52155.0 556.0 0 80.28270990093651 256.0
52176.0 562.0 0 80.21842689330374 256.0
52199.0 562.0 0 80.15414388567098 255.0
52221.0 561.0 0 80.08986087803822 255.0
52244.0 559.0 0 80.02557787040546 255.0
52266.0 558.0 0 79.9612948627727 254.0
52288.0 565.0 0 79.89701185513994 254.0
52310.0 560.0 0 79.83272884750717 254.0
52333.0 556.0 0 79.76844583987442 254.0
52355.0 556.0 0 79.70416283224165 253.0
52397.0 562.0 500 79.6398798246089 252.0
52420.0 315.0 0 79.57559681697613 251.0
52442.0 303.0 0 79.01314560961836 251.0
52465.0 298.0 0 78.45069440226061 250.0
52486.0 302.0 0 77.88824319490284 250.0
52509.0 339.0 0 77.32579198754509 249.0
52532.0 406.0 0 76.76334078018732 248.0
52554.0 519.0 0 76.20088957282955 248.0
52576.0 561.0 0 75.6384383654718 247.0
52598.0 560.0 0 75.07598715811403 246.0
52621.0 562.0 0 74.51353595075628 246.0
52643.0 560.0 0 73.95108474339851 245.0
52666.0 562.0 0 73.38863353604074 245.0
52687.0 562.0 0 72.82618232868299 244.0
52710.0 564.0 0 72.26373112132522 243.0
52732.0 558.0 0 71.70127991396747 243.0
52755.0 561.0 0 71.1388287066097 242.0
52777.0 561.0 0 70.57637749925195 241.0
52799.0 564.0 0 70.01392629189418 241.0
52821.0 561.0 0 69.45147508453641 240.0
52844.0 562.0 0 68.88902387717866 240.0
52866.0 562.0 0 68.32657266982089 240.0
52908.0 537.0 0 67.76412146246314 240.0
52931.0 305.0 0 67.20167025510537 241.0
52953.0 298.0 0 66.63921904774762 241.0
52976.0 305.0 0 66.07676784038985 241.0
52997.0 300.0 0 65.51431663303208 242.0
53020.0 275.0 0 64.95186542567433 242.0
53042.0 299.0 0 64.38941421831656 242.0
53065.0 322.0 0 63.8269630109588 243.0
53088.0 325.0 0 63.26451180360104 243.0
53109.0 313.0 0 62.70206059624327 243.0
53132.0 353.0 0 62.13960938888552 243.0
53154.0 331.0 0 61.57715818152775 244.0
53177.0 327.0 0 61.01470697416999 244.0
53198.0 323.0 0 60.45225576681223 244.0
53221.0 287.0 0 59.88980455945447 245.0
53243.0 326.0 0 59.32735335209671 245.0
53266.0 313.0 0 58.76490214473894 245.0
53288.0 349.0 0 58.20245093738118 246.0
53310.0 348.0 0 57.63999973002342 246.0
53332.0 340.0 0 57.07754852266566 246.0
53355.0 340.0 0 56.5150973153079 246.0
53397.0 402.0 0 55.95264610795013 245.0
53419.0 327.0 0 55.39019490059238 244.0
53442.0 321.0 0 54.82774369323461 243.0
53464.0 320.0 0 54.26529248587685 242.0
53487.0 326.0 0 53.70284127851909 241.0
53508.0 310.0 0 53.14039007116133 241.0
53531.0 307.0 0 52.57793886380357 240.0
53553.0 304.0 0 52.0154876564458 239.0
53576.0 377.0 500 51.453036449088046 238.0
53599.0 442.0 0 50.89058524173028 237.0
53620.0 558.0 0 51.5246144575486 237.0
53643.0 557.0 0 52.15864367336692 236.0
53665.0 560.0 0 52.79267288918524 235.0
53688.0 561.0 0 53.42670210500356 234.0
53710.0 562.0 0 54.06073132082188 233.0
53732.0 556.0 0 54.6947605366402 233.0
53754.0 559.0 0 55.32878975245852 232.0
53777.0 556.0 0 55.96281896827684 231.0
53799.0 558.0 0 56.596848184095165 230.0
53822.0 556.0 0 57.23087739991348 229.0
53843.0 561.0 0 57.864906615731805 229.0
53866.0 561.0 0 58.49893583155013 229.0
53908.0 378.0 0 59.132965047368444 229.0
53930.0 306.0 0 59.76699426318677 229.0
53953.0 306.0 0 60.40102347900508 230.0
53975.0 310.0 0 61.035052694823406 230.0
53998.0 317.0 0 61.66908191064173 230.0
54019.0 309.0 0 62.303111126460045 230.0
54042.0 247.0 0 62.93714034227837 230.0
54064.0 263.0 0 63.571169558096685 231.0
54087.0 178.0 0 64.20519877391501 231.0
54110.0 242.0 0 64.83922798973333 231.0
54131.0 268.0 0 65.47325720555165 231.0
54154.0 275.0 0 66.10728642136996 232.0
54176.0 297.0 0 66.7413156371883 232.0
54199.0 263.0 0 67.37534485300661 232.0
54221.0 289.0 0 68.00937406882494 232.0
54243.0 290.0 0 68.64340328464326 232.0
54265.0 241.0 0 69.27743250046157 233.0
54288.0 252.0 0 69.91146171627989 233.0
54310.0 317.0 0 70.54549093209822 233.0
54333.0 235.0 0 71.17952014791653 233.0
54354.0 235.0 0 71.81354936373485 234.0
54397.0 404.0 500 72.44757857955318 234.0
54419.0 335.0 0 73.0816077953715 234.0
54441.0 326.0 0 73.35230346457267 234.0
54464.0 325.0 0 73.62299913377386 235.0
54486.0 324.0 0 73.89369480297503 235.0
54509.0 314.0 0 74.16439047217622 235.0
54530.0 360.0 0 74.4350861413774 235.0
54553.0 560.0 0 74.70578181057857 236.0
54575.0 562.0 0 74.97647747977976 236.0
54598.0 562.0 0 75.24717314898093 236.0
54620.0 559.0 0 75.51786881818212 236.0
54642.0 560.0 0 75.7885644873833 236.0
54665.0 560.0 0 76.05926015658447 237.0
54687.0 560.0 0 76.32995582578566 237.0
54710.0 561.0 0 76.60065149498683 237.0
54732.0 562.0 0 76.87134716418802 237.0
54754.0 563.0 0 77.1420428333892 238.0
54776.0 556.0 0 77.41273850259037 238.0
54799.0 559.0 0 77.68343417179156 238.0
54821.0 560.0 0 77.95412984099274 238.0
54844.0 563.0 0 78.22482551019392 238.0
54865.0 563.0 0 78.4955211793951 238.0
54908.0 399.0 0 78.76621684859629 238.0
54931.0 316.0 0 79.03691251779746 238.0
54952.0 300.0 0 79.30760818699864 237.0
54975.0 309.0 0 79.57830385619982 237.0
54997.0 308.0 0 79.848999525401 237.0
55020.0 301.0 0 80.11969519460219 236.0
55042.0 210.0 0 80.39039086380336 236.0
55064.0 254.0 0 80.66108653300454 236.0
55086.0 291.0 0 80.93178220220572 236.0
55109.0 249.0 0 81.2024778714069 235.0
55131.0 558.0 500 81.47317354060809 235.0
55153.0 559.0 0 81.74386920980926 235.0
55175.0 561.0 0 81.60678460405981 235.0
55198.0 560.0 0 81.46969999831035 234.0
55221.0 560.0 0 81.3326153925609 234.0
55243.0 562.0 0 81.19553078681143 234.0
55265.0 558.0 0 81.05844618106198 233.0
55287.0 561.0 0 80.92136157531253 233.0
55310.0 559.0 0 80.78427696956307 233.0
55332.0 557.0 0 80.64719236381362 233.0
55355.0 557.0 0 80.51010775806415 232.0
55397.0 344.0 0 80.3730231523147 232.0
55419.0 315.0 0 80.23593854656525 231.0
55442.0 300.0 0 80.09885394081579 231.0
55463.0 302.0 0 79.96176933506634 230.0
55486.0 310.0 0 79.82468472931687 230.0
55508.0 312.0 0 79.68760012356742 229.0
55531.0 513.0 0 79.55051551781797 229.0
55553.0 559.0 0 79.4134309120685 228.0
55575.0 558.0 0 79.27634630631906 228.0
55597.0 562.0 0 79.13926170056959 228.0
55620.0 561.0 0 79.00217709482014 227.0
55642.0 559.0 0 78.86509248907069 227.0
55665.0 559.0 0 78.72800788332123 226.0
55686.0 560.0 0 78.59092327757178 226.0
55709.0 560.0 0 78.45383867182233 225.0
55732.0 561.0 0 78.31675406607286 225.0
55754.0 519.0 0 78.17966946032341 224.0
55777.0 556.0 0 78.04258485457395 224.0
55798.0 291.0 0 77.9055002488245 224.0
55821.0 156.0 0 77.76841564307504 223.0
55843.0 158.0 0 77.63133103732558 223.0
55866.0 158.0 0 77.49424643157613 223.0
55908.0 366.0 500 77.35716182582667 223.0
55930.0 317.0 0 77.22007722007721 223.0
55953.0 311.0 0 76.82100705356518 223.0
55974.0 303.0 0 76.42193688705316 224.0
55997.0 304.0 0 76.02286672054113 224.0
56019.0 327.0 0 75.62379655402911 224.0
56042.0 561.0 0 75.22472638751708 224.0
56064.0 559.0 0 74.82565622100505 224.0
56086.0 562.0 0 74.42658605449303 224.0
56108.0 562.0 0 74.027515887981 225.0
56131.0 561.0 0 73.62844572146898 225.0
56153.0 559.0 0 73.22937555495695 225.0
56176.0 559.0 0 72.83030538844491 225.0
56197.0 561.0 0 72.4312352219329 225.0
56220.0 559.0 0 72.03216505542086 225.0
56242.0 560.0 0 71.63309488890884 226.0
56265.0 560.0 0 71.23402472239681 226.0
56288.0 564.0 0 70.83495455588479 226.0
56309.0 559.0 0 70.43588438937276 226.0
56332.0 559.0 0 70.03681422286073 226.0
56354.0 559.0 0 69.63774405634871 227.0
56396.0 476.0 0 69.23867388983668 227.0
56419.0 308.0 0 68.83960372332466 227.0
56441.0 295.0 0 68.44053355681262 228.0
56464.0 307.0 0 68.04146339030059 228.0
56485.0 305.0 0 67.64239322378857 228.0
56508.0 307.0 0 67.24332305727654 229.0
56530.0 141.0 0 66.84425289076452 229.0
56553.0 132.0 0 66.44518272425249 229.0
56575.0 115.0 0 66.04611255774046 230.0
56597.0 124.0 0 65.64704239122844 230.0
56619.0 202.0 0 65.2479722247164 230.0
56642.0 146.0 0 64.84890205820439 231.0
56664.0 189.0 0 64.44983189169236 231.0
56687.0 199.0 0 64.05076172518032 231.0
56708.0 264.0 0 63.651691558668304 232.0
56731.0 128.0 0 63.25262139215627 232.0
56753.0 148.0 0 62.853551225644246 232.0
56776.0 173.0 0 62.45448105913222 232.0
56799.0 137.0 0 62.055410892620195 233.0
56820.0 209.0 0 61.65634072610817 233.0
56843.0 335.0 0 61.25727055959614 233.0
56865.0 335.0 0 60.85820039308412 233.0
56907.0 412.0 500 60.459130226572086 232.0
56930.0 326.0 0 60.06006006006006 231.0
56952.0 319.0 0 63.03096099014466 231.0
56975.0 328.0 0 66.00186192022926 230.0
56997.0 320.0 0 68.97276285031387 230.0
57019.0 320.0 0 71.94366378039848 229.0
57041.0 335.0 0 74.91456471048308 228.0
57064.0 357.0 0 77.88546564056767 228.0
57086.0 323.0 0 80.85636657065228 227.0
57109.0 345.0 0 83.8272675007369 227.0
57130.0 319.0 0 86.79816843082149 226.0
57153.0 278.0 0 89.76906936090609 226.0
57175.0 296.0 0 92.7399702909907 225.0
57198.0 319.0 0 95.71087122107531 224.0
57219.0 333.0 0 98.6817721511599 224.0
57242.0 350.0 0 101.6526730812445 223.0
57264.0 329.0 0 104.62357401132911 223.0
57287.0 313.0 0 107.59447494141372 222.0
57310.0 319.0 0 110.56537587149832 222.0
57331.0 283.0 0 113.53627680158291 221.0
57354.0 283.0 0 116.50717773166753 221.0
57397.0 408.0 500 119.47807866175214 221.0
57418.0 337.0 0 122.44897959183673 222.0
57441.0 333.0 0 121.40321967296235 222.0
57463.0 335.0 0 120.35745975408797 222.0
57486.0 336.0 0 119.31169983521359 223.0
57508.0 332.0 0 118.2659399163392 223.0
57530.0 344.0 0 117.22017999746483 223.0
57552.0 331.0 0 116.17442007859044 224.0
57575.0 331.0 0 115.12866015971606 224.0
57597.0 338.0 0 114.08290024084168 224.0
57620.0 358.0 0 113.0371403219673 225.0
57641.0 399.0 0 111.99138040309292 225.0
57664.0 436.0 0 110.94562048421854 226.0
57686.0 490.0 0 109.89986056534416 226.0
57709.0 560.0 0 108.85410064646976 226.0
57731.0 561.0 0 107.80834072759538 227.0
57753.0 560.0 0 106.762580808721 227.0
57775.0 560.0 0 105.71682088984662 227.0
57798.0 561.0 0 104.67106097097223 228.0
57820.0 564.0 0 103.62530105209785 228.0
57843.0 561.0 0 102.57954113322347 228.0
57865.0 561.0 0 101.53378121434909 229.0
57908.0 354.0 0 100.48802129547471 229.0
57929.0 315.0 0 99.44226137660033 229.0
57952.0 316.0 0 98.39650145772595 229.0
57974.0 313.0 0 97.35074153885157 229.0
57997.0 324.0 0 96.30498161997718 229.0
58019.0 304.0 0 95.2592217011028 230.0
58041.0 347.0 500 94.21346178222842 230.0
58063.0 552.0 0 93.16770186335404 230.0
58086.0 557.0 0 94.25951086956522 230.0
58108.0 559.0 0 95.3513198757764 230.0
58131.0 560.0 0 96.44312888198758 230.0
58152.0 562.0 0 97.53493788819875 230.0
58175.0 561.0 0 98.62674689440993 230.0
58197.0 556.0 0 99.71855590062111 231.0
58220.0 556.0 0 100.8103649068323 231.0
58242.0 559.0 0 101.90217391304348 231.0
58264.0 563.0 0 102.99398291925466 231.0
58286.0 560.0 0 104.08579192546584 231.0
58309.0 561.0 0 105.17760093167702 231.0
58331.0 561.0 0 106.2694099378882 231.0
58354.0 561.0 0 107.36121894409938 231.0
58396.0 350.0 0 108.45302795031056 231.0
58418.0 305.0 0 109.54483695652173 231.0
58441.0 310.0 0 110.63664596273293 231.0
58463.0 308.0 0 111.7284549689441 231.0
58485.0 313.0 0 112.82026397515529 230.0
58508.0 314.0 0 113.91207298136646 230.0
58530.0 260.0 0 115.00388198757764 230.0
58553.0 558.0 500 116.09569099378882 230.0
58574.0 561.0 0 117.1875 230.0
58597.0 558.0 0 117.461943793911 230.0
58619.0 563.0 0 117.73638758782201 229.0
58642.0 562.0 0 118.01083138173303 229.0
58663.0 562.0 0 118.28527517564403 229.0
58686.0 563.0 0 118.55971896955504 229.0
58708.0 559.0 0 118.83416276346604 229.0
58731.0 556.0 0 119.10860655737704 228.0
58753.0 558.0 0 119.38305035128806 228.0
58775.0 556.0 0 119.65749414519907 228.0
58797.0 560.0 0 119.93193793911007 228.0
58820.0 561.0 0 120.20638173302108 228.0
58842.0 562.0 0 120.48082552693208 228.0
58865.0 562.0 0 120.7552693208431 228.0
58907.0 554.0 0 121.0297131147541 229.0
58929.0 313.0 0 121.3041569086651 229.0
58952.0 298.0 0 121.57860070257611 230.0
58974.0 305.0 0 121.85304449648712 230.0
58996.0 297.0 0 122.12748829039812 231.0
59019.0 293.0 0 122.40193208430914 232.0
59041.0 457.0 500 122.67637587822014 232.0
59064.0 436.0 0 122.95081967213115 233.0
59085.0 559.0 0 121.52159063910668 233.0
59108.0 560.0 0 120.0923616060822 234.0
59130.0 563.0 0 118.66313257305774 234.0
59153.0 557.0 0 117.23390354003325 235.0
59175.0 558.0 0 115.80467450700878 235.0
59197.0 563.0 0 114.37544547398431 236.0
59219.0 559.0 0 112.94621644095984 236.0
59242.0 559.0 0 111.51698740793537 237.0
59264.0 554.0 0 110.0877583749109 237.0
59287.0 563.0 0 108.65852934188644 238.0
59308.0 559.0 0 107.22930030886197 238.0
59331.0 556.0 0 105.8000712758375 239.0
59353.0 556.0 0 104.37084224281301 239.0
59395.0 531.0 0 102.94161320978854 239.0
59418.0 313.0 0 101.51238417676407 238.0
59440.0 298.0 0 100.0831551437396 238.0
59463.0 298.0 0 98.65392611071513 238.0
59484.0 302.0 0 97.22469707769066 237.0
59507.0 163.0 0 95.7954680446662 237.0
59530.0 163.0 0 94.36623901164171 237.0
59552.0 53.0 0 92.93700997861725 236.0
59574.0 179.0 0 91.50778094559277 236.0
59595.0 179.0 0 90.0785519125683 236.0
59618.0 179.0 0 88.64932287954383 235.0
59640.0 57.0 0 87.22009384651935 235.0
59662.0 57.0 0 85.79086481349489 235.0
59682.0 57.0 0 84.36163578047041 234.0
59704.0 57.0 0 82.93240674744595 234.0
59725.0 313.0 0 81.50317771442147 234.0
59748.0 111.0 0 80.073948681397 233.0
59770.0 111.0 0 78.64471964837253 233.0
59792.0 111.0 0 77.21549061534806 232.0
59814.0 111.0 0 75.78626158232359 232.0
59837.0 76.0 0 74.3570325492991 232.0
59858.0 76.0 0 72.92780351627465 231.0
59899.0 347.0 0 71.49857448325017 231.0
59922.0 323.0 0 70.0693454502257 231.0
59944.0 320.0 0 68.64011641720123 231.0
59966.0 323.0 0 67.21088738417676 231.0
59988.0 323.0 0 65.78165835115229 231.0
60011.0 331.0 0 64.35242931812782 231.0
60033.0 287.0 0 62.92320028510335 230.0
60055.0 280.0 0 61.49397125207887 230.0
60077.0 196.0 0 60.0647422190544 230.0
60100.0 280.0 0 58.635513186029925 230.0
60122.0 188.0 0 57.206284153005456 230.0
60145.0 554.0 500 55.777055119980986 230.0
60166.0 221.0 0 54.34782608695652 230.0
60189.0 562.0 0 55.57566044563925 229.0
60212.0 414.0 0 56.80349480432198 229.0
60234.0 121.0 0 58.031329163004706 229.0
60257.0 172.0 0 59.259163521687434 229.0
60278.0 261.0 0 60.48699788037016 229.0
60301.0 559.0 0 61.71483223905289 229.0
60323.0 512.0 0 62.94266659773562 229.0
60346.0 559.0 0 64.17050095641834 229.0
60368.0 559.0 0 65.39833531510106 228.0
60410.0 418.0 0 66.62616967378379 227.0
60433.0 326.0 0 67.85400403246652 227.0
60455.0 320.0 0 69.08183839114925 226.0
60477.0 326.0 0 70.30967274983198 226.0
60499.0 324.0 0 71.5375071085147 225.0
60522.0 342.0 0 72.76534146719743 225.0
60544.0 234.0 0 73.99317582588016 224.0
60567.0 289.0 0 75.22101018456289 224.0
60588.0 289.0 0 76.44884454324561 223.0
60611.0 131.0 0 77.67667890192834 223.0
60633.0 195.0 0 78.90451326061107 222.0
60656.0 124.0 0 80.1323476192938 222.0
60678.0 171.0 0 81.36018197797652 221.0
60700.0 111.0 0 82.58801633665925 221.0
60722.0 251.0 0 83.81585069534198 220.0
60745.0 202.0 0 85.0436850540247 220.0
60768.0 356.0 0 86.27151941270743 219.0
60790.0 101.0 0 87.49935377139016 219.0
60812.0 263.0 500 88.72718813007289 218.0
60834.0 263.0 0 89.95502248875562 218.0
60857.0 263.0 0 89.19943052352868 217.0
60899.0 412.0 0 88.44383855830174 217.0
60921.0 329.0 0 87.68824659307481 217.0
60944.0 322.0 0 86.93265462784787 216.0
60966.0 334.0 0 86.17706266262093 216.0
60988.0 327.0 0 85.42147069739399 216.0
61010.0 328.0 0 84.66587873216704 215.0
61033.0 345.0 0 83.91028676694012 215.0
61055.0 561.0 0 83.15469480171318 215.0
61078.0 561.0 0 82.39910283648624 214.0
61099.0 556.0 0 81.6435108712593 214.0
61122.0 559.0 0 80.88791890603235 214.0
61144.0 562.0 0 80.13232694080543 213.0
61167.0 559.0 0 79.37673497557849 213.0
61189.0 562.0 0 78.62114301035155 213.0
61211.0 562.0 0 77.8655510451246 212.0
61233.0 558.0 0 77.10995907989768 212.0
61256.0 560.0 0 76.35436711467074 212.0
61279.0 559.0 0 75.5987751494438 211.0
61301.0 560.0 0 74.84318318421685 211.0
61323.0 560.0 0 74.08759121898991 211.0
61345.0 560.0 0 73.33199925376297 211.0
61368.0 560.0 0 72.57640728853605 210.0
61410.0 324.0 0 71.8208153233091 210.0
61432.0 310.0 0 71.06522335808216 210.0
61455.0 308.0 0 70.30963139285524 210.0
61477.0 312.0 0 69.55403942762828 210.0
61499.0 310.0 0 68.79844746240136 210.0
61521.0 339.0 0 68.04285549717441 209.0
61544.0 328.0 0 67.28726353194747 209.0
61566.0 328.0 0 66.53167156672055 209.0
61589.0 303.0 0 65.7760796014936 209.0
61610.0 292.0 0 65.02048763626667 209.0
61633.0 310.0 0 64.26489567103972 209.0
61655.0 415.0 0 63.50930370581278 209.0
61678.0 292.0 0 62.75371174058584 209.0
61700.0 277.0 0 61.99811977535891 208.0
61722.0 329.0 0 61.242527810131975 208.0
61744.0 288.0 0 60.486935844905034 208.0
61767.0 276.0 0 59.73134387967809 208.0
61790.0 260.0 0 58.97575191445116 208.0
61812.0 278.0 0 58.220159949224225 208.0
61834.0 329.0 0 57.464567983997284 208.0
61856.0 329.0 0 56.70897601877034 208.0
61899.0 454.0 500 55.95338405354341 211.0
61921.0 338.0 0 55.19779208831647 212.0
61943.0 324.0 0 58.025930163647395 213.0
61966.0 318.0 0 60.85406823897832 215.0
61988.0 325.0 0 63.68220631430925 216.0
62011.0 325.0 0 66.51034438964018 217.0
62032.0 340.0 0 69.33848246497111 219.0
62055.0 190.0 0 72.16662054030203 220.0
62077.0 100.0 0 74.99475861563296 222.0
62100.0 132.0 0 77.82289669096389 223.0
62121.0 136.0 0 80.65103476629481 224.0
62144.0 112.0 0 83.47917284162574 226.0
62166.0 123.0 0 86.30731091695667 227.0
62189.0 187.0 0 89.13544899228759 229.0
62211.0 139.0 0 91.96358706761853 230.0
62233.0 162.0 0 94.79172514294945 231.0
62255.0 168.0 0 97.61986321828039 233.0
62278.0 170.0 0 100.4480012936113 234.0
62300.0 175.0 0 103.27613936894224 235.0
62323.0 143.0 0 106.10427744427317 237.0
62345.0 200.0 0 108.93241551960409 238.0
62367.0 200.0 0 111.760553594935 238.0
62410.0 439.0 500 114.58869167026594 237.0
62432.0 329.0 0 117.41682974559687 236.0
62454.0 330.0 0 116.2637464007327 235.0
62477.0 326.0 0 115.11066305586854 234.0
62499.0 327.0 0 113.95757971100437 234.0
62522.0 349.0 0 112.8044963661402 233.0
62543.0 375.0 0 111.65141302127604 232.0
62566.0 335.0 0 110.49832967641187 232.0
62588.0 558.0 0 109.3452463315477 231.0
62611.0 563.0 0 108.19216298668354 230.0
62633.0 560.0 0 107.03907964181937 229.0
62655.0 558.0 0 105.8859962969552 229.0
62677.0 562.0 0 104.73291295209104 228.0
62700.0 554.0 0 103.57982960722687 227.0
62722.0 563.0 0 102.4267462623627 227.0
62744.0 558.0 0 101.27366291749854 226.0
62766.0 563.0 0 100.12057957263437 225.0
62789.0 555.0 0 98.9674962277702 224.0
62811.0 558.0 0 97.81441288290604 224.0
62834.0 562.0 0 96.66132953804187 223.0
62855.0 562.0 0 95.5082461931777 222.0
62898.0 355.0 0 94.35516284831354 222.0
62921.0 320.0 0 93.20207950344937 222.0
62943.0 305.0 0 92.0489961585852 222.0
62965.0 313.0 0 90.89591281372103 222.0
62988.0 315.0 0 89.74282946885687 222.0
63010.0 319.0 0 88.5897461239927 222.0
63033.0 289.0 0 87.43666277912854 222.0
63054.0 261.0 0 86.28357943426437 222.0
63077.0 293.0 0 85.1304960894002 222.0
63099.0 257.0 0 83.97741274453603 222.0
63122.0 246.0 0 82.82432939967187 221.0
63144.0 221.0 0 81.6712460548077 221.0
63166.0 481.0 500 80.51816270994354 221.0
63188.0 556.0 0 79.36507936507937 221.0
63211.0 559.0 0 80.34272532542428 221.0
63233.0 558.0 0 81.32037128576921 221.0
63256.0 563.0 0 82.29801724611413 221.0
63277.0 564.0 0 83.27566320645906 221.0
63300.0 556.0 0 84.25330916680397 221.0
63322.0 560.0 0 85.2309551271489 221.0
63345.0 557.0 0 86.20860108749382 221.0
63367.0 557.0 0 87.18624704783875 220.0
63409.0 337.0 0 88.16389300818366 220.0
63432.0 319.0 0 89.1415389685286 219.0
63455.0 318.0 0 90.11918492887351 219.0
63476.0 309.0 0 91.09683088921844 219.0
63499.0 308.0 0 92.07447684956335 218.0
63521.0 272.0 0 93.05212280990828 218.0
63544.0 235.0 0 94.0297687702532 218.0
63566.0 247.0 0 95.00741473059813 217.0
63588.0 269.0 0 95.98506069094304 217.0
63610.0 297.0 0 96.96270665128796 217.0
63633.0 236.0 0 97.94035261163289 217.0
63655.0 227.0 0 98.91799857197782 216.0
63677.0 251.0 0 99.89564453232273 216.0
63699.0 243.0 0 100.87329049266765 216.0
63722.0 220.0 0 101.85093645301258 215.0
63744.0 454.0 500 102.82858241335751 215.0
63767.0 561.0 0 103.80622837370242 215.0
63788.0 561.0 0 103.00058742965318 214.0
63811.0 559.0 0 102.19494648560392 214.0
63833.0 559.0 0 101.38930554155468 214.0
63856.0 559.0 0 100.58366459750543 214.0
63898.0 343.0 0 99.77802365345619 214.0
63920.0 326.0 0 98.97238270940693 214.0
63943.0 322.0 0 98.16674176535768 215.0
63966.0 314.0 0 97.36110082130844 215.0
63987.0 315.0 0 96.55545987725918 215.0
64010.0 299.0 0 95.74981893320994 216.0
64032.0 239.0 0 94.94417798916069 216.0
64055.0 259.0 0 94.13853704511143 216.0
64077.0 272.0 0 93.33289610106219 217.0
64099.0 312.0 0 92.52725515701295 217.0
64121.0 251.0 0 91.72161421296369 217.0
64144.0 275.0 0 90.91597326891444 218.0
64166.0 293.0 0 90.1103323248652 218.0
64189.0 282.0 0 89.30469138081595 218.0
64210.0 242.0 0 88.4990504367667 219.0
64233.0 248.0 0 87.69340949271745 219.0
64255.0 287.0 0 86.8877685486682 219.0
64278.0 257.0 0 86.08212760461896 219.0
64299.0 277.0 0 85.2764866605697 220.0
64322.0 543.0 0 84.47084571652046 220.0
64344.0 559.0 0 83.66520477247121 220.0
64367.0 559.0 0 82.85956382842195 221.0
64409.0 365.0 0 82.05392288437271 221.0
64431.0 324.0 0 81.24828194032347 221.0
64454.0 315.0 0 80.4426409962742 221.0
64476.0 329.0 0 79.63700005222496 221.0
64498.0 326.0 0 78.83135910817572 221.0
64521.0 396.0 500 78.02571816412646 221.0
64543.0 555.0 0 77.22007722007721 221.0
64566.0 561.0 0 76.96606380816907 221.0
64588.0 559.0 0 76.71205039626092 221.0
64610.0 562.0 0 76.45803698435277 222.0
64632.0 563.0 0 76.20402357244463 222.0
64655.0 562.0 0 75.95001016053646 222.0
64677.0 561.0 0 75.69599674862832 222.0
64700.0 561.0 0 75.44198333672017 222.0
64721.0 562.0 0 75.18796992481202 222.0
64744.0 562.0 0 74.93395651290388 222.0
64766.0 560.0 0 74.67994310099573 222.0
64789.0 562.0 0 74.42592968908758 222.0
64811.0 564.0 0 74.17191627717943 222.0
64833.0 558.0 0 73.91790286527129 222.0
64855.0 558.0 0 73.66388945336314 223.0
64898.0 332.0 0 73.40987604145498 223.0
64920.0 311.0 0 73.15586262954683 223.0
64942.0 306.0 0 72.90184921763868 223.0
64965.0 315.0 0 72.64783580573054 223.0
64987.0 316.0 0 72.39382239382239 223.0
65009.0 309.0 0 72.13980898191424 223.0
65031.0 298.0 0 71.8857955700061 223.0
65054.0 310.0 0 71.63178215809795 223.0
65077.0 313.0 0 71.3777687461898 223.0
65099.0 329.0 0 71.12375533428164 223.0
65121.0 331.0 0 70.86974192237349 224.0
65143.0 330.0 0 70.61572851046535 224.0
65166.0 294.0 0 70.3617150985572 224.0
65188.0 306.0 0 70.10770168664905 224.0
65211.0 308.0 0 69.8536882747409 224.0
65232.0 351.0 0 69.59967486283276 224.0
65255.0 311.0 0 69.34566145092461 224.0
65277.0 370.0 0 69.09164803901646 224.0
65300.0 371.0 0 68.83763462710832 224.0
65322.0 383.0 0 68.58362121520015 224.0
65344.0 350.0 0 68.329607803292 224.0
65366.0 350.0 0 68.07559439138386 224.0
65409.0 430.0 500 67.82158097947571 224.0
65431.0 327.0 0 67.56756756756756 224.0
65453.0 319.0 0 70.19289227878184 224.0
65476.0 320.0 0 72.81821698999613 224.0
65498.0 318.0 0 75.4435417012104 223.0
65521.0 290.0 0 78.0688664124247 223.0
65542.0 260.0 0 80.69419112363897 223.0
65565.0 287.0 0 83.31951583485326 223.0
65588.0 303.0 0 85.94484054606754 223.0
65610.0 285.0 0 88.57016525728181 222.0
65633.0 302.0 0 91.1954899684961 222.0
65654.0 311.0 0 93.82081467971038 222.0
65677.0 303.0 0 96.44613939092467 222.0
65699.0 322.0 0 99.07146410213895 222.0
65722.0 312.0 0 101.69678881335324 222.0
65744.0 267.0 0 104.32211352456751 221.0
65766.0 299.0 0 106.94743823578179 221.0
65788.0 304.0 0 109.57276294699608 221.0
65811.0 289.0 0 112.19808765821037 221.0
65833.0 308.0 0 114.82341236942463 221.0
65856.0 308.0 0 117.44873708063892 220.0
65898.0 413.0 500 120.07406179185321 219.0
65920.0 326.0 0 122.69938650306749 219.0
65942.0 333.0 0 121.46354131438817 218.0
65964.0 328.0 0 120.22769612570883 218.0
65987.0 326.0 0 118.99185093702951 218.0
66009.0 364.0 0 117.75600574835019 217.0
66032.0 564.0 0 116.52016055967087 217.0
66053.0 561.0 0 115.28431537099154 216.0
66076.0 557.0 0 114.04847018231222 216.0
66098.0 560.0 0 112.8126249936329 215.0
66121.0 564.0 0 111.57677980495357 215.0
66144.0 556.0 0 110.34093461627424 214.0
66165.0 555.0 0 109.10508942759492 214.0
66188.0 563.0 0 107.8692442389156 213.0
66210.0 557.0 0 106.63339905023628 213.0
66233.0 555.0 0 105.39755386155696 212.0
66255.0 556.0 0 104.16170867287762 212.0
66277.0 561.0 0 102.9258634841983 211.0
66299.0 558.0 0 101.69001829551898 211.0
66322.0 557.0 0 100.45417310683965 210.0
66344.0 557.0 0 99.21832791816033 210.0
66367.0 557.0 0 97.982482729481 210.0
66409.0 536.0 0 96.74663754080169 212.0
66431.0 320.0 0 95.51079235212235 212.0
66454.0 317.0 0 94.27494716344303 213.0
66475.0 306.0 0 93.03910197476371 214.0
66498.0 306.0 0 91.80325678608439 215.0
66520.0 335.0 0 90.56741159740506 216.0
66543.0 277.0 0 89.33156640872573 216.0
66564.0 285.0 0 88.09572122004641 217.0
66587.0 248.0 0 86.8598760313671 218.0
66609.0 299.0 500 85.62403084268776 219.0
66632.0 563.0 0 84.38818565400844 220.0
66655.0 556.0 0 84.82966715555726 220.0
66676.0 556.0 0 85.27114865710608 221.0
66699.0 563.0 0 85.7126301586549 222.0
66721.0 560.0 0 86.15411166020372 223.0
66744.0 560.0 0 86.59559316175255 224.0
66766.0 556.0 0 87.03707466330137 224.0
66788.0 563.0 0 87.4785561648502 225.0
66810.0 556.0 0 87.92003766639903 226.0
66833.0 562.0 0 88.36151916794785 227.0
66855.0 562.0 0 88.80300066949667 228.0
66897.0 559.0 0 89.24448217104549 229.0
66920.0 313.0 0 89.68596367259431 229.0
66942.0 309.0 0 90.12744517414313 230.0
66965.0 311.0 0 90.56892667569196 231.0
66986.0 311.0 0 91.01040817724078 231.0
67009.0 300.0 0 91.4518896787896 232.0
67031.0 239.0 0 91.89337118033842 233.0
67054.0 238.0 0 92.33485268188724 233.0
67076.0 328.0 0 92.77633418343606 234.0
67098.0 376.0 0 93.21781568498488 234.0
67120.0 364.0 0 93.65929718653372 235.0
67143.0 321.0 0 94.10077868808254 236.0
67166.0 313.0 0 94.54226018963136 236.0
67187.0 360.0 0 94.98374169118019 237.0
67210.0 285.0 0 95.425223192729 238.0
67232.0 536.0 500 95.86670469427783 238.0
67255.0 556.0 0 96.30818619582665 239.0
67277.0 554.0 0 95.57780453283476 239.0
67299.0 558.0 0 94.84742286984289 240.0
67321.0 558.0 0 94.117041206851 241.0
67344.0 562.0 0 93.38665954385912 241.0
67366.0 562.0 0 92.65627788086724 241.0
67408.0 558.0 0 91.92589621787536 240.0
67431.0 322.0 0 91.19551455488347 240.0
67453.0 309.0 0 90.4651328918916 240.0
67476.0 313.0 0 89.73475122889971 239.0
67497.0 305.0 0 89.00436956590784 239.0
67520.0 324.0 0 88.27398790291595 238.0
67542.0 504.0 0 87.54360623992406 238.0
67565.0 561.0 0 86.81322457693219 238.0
67587.0 559.0 0 86.0828429139403 237.0
67609.0 559.0 0 85.35246125094842 237.0
67631.0 560.0 0 84.62207958795653 236.0
67654.0 562.0 0 83.89169792496466 236.0
67676.0 561.0 0 83.16131626197277 236.0
67699.0 558.0 0 82.4309345989809 235.0
67721.0 564.0 0 81.70055293598901 235.0
67743.0 561.0 0 80.97017127299713 234.0
67766.0 559.0 0 80.23978961000525 234.0
67788.0 555.0 0 79.50940794701336 234.0
67811.0 557.0 0 78.77902628402148 233.0
67832.0 553.0 0 78.04864462102961 233.0
67855.0 553.0 0 77.31826295803772 233.0
67897.0 552.0 0 76.58788129504583 233.0
67919.0 308.0 0 75.85749963205396 233.0
67942.0 303.0 0 75.12711796906207 233.0
67964.0 299.0 0 74.3967363060702 233.0
67987.0 299.0 0 73.66635464307831 233.0
68008.0 263.0 0 72.93597298008643 233.0
68031.0 230.0 0 72.20559131709454 234.0
68053.0 424.0 0 71.47520965410266 234.0
68076.0 106.0 0 70.74482799111078 234.0
68098.0 436.0 500 70.01444632811891 234.0
68120.0 76.0 0 69.28406466512702 234.0
68141.0 172.0 0 70.00618532873555 234.0
68164.0 376.0 0 70.72830599234408 234.0
68186.0 82.0 0 71.45042665595261 235.0
68207.0 207.0 0 72.17254731956115 235.0
68229.0 233.0 0 72.89466798316968 235.0
68252.0 248.0 0 73.6167886467782 235.0
68274.0 331.0 0 74.33890931038674 235.0
68297.0 141.0 0 75.06102997399528 235.0
68319.0 174.0 0 75.78315063760381 235.0
68341.0 258.0 0 76.50527130121233 235.0
68364.0 258.0 0 77.22739196482087 236.0
68406.0 433.0 0 77.9495126284294 238.0
68428.0 332.0 0 78.67163329203792 239.0
68451.0 327.0 0 79.39375395564646 240.0
68473.0 319.0 0 80.115874619255 241.0
68496.0 316.0 0 80.83799528286353 242.0
68517.0 347.0 0 81.56011594647205 242.0
68540.0 214.0 0 82.28223661008059 243.0
68562.0 248.0 0 83.00435727368912 244.0
68585.0 222.0 0 83.72647793729766 245.0
68607.0 284.0 0 84.44859860090618 246.0
68629.0 328.0 0 85.17071926451472 247.0
68651.0 246.0 0 85.89283992812325 248.0
68674.0 330.0 0 86.61496059173177 249.0
68696.0 224.0 0 87.33708125534031 250.0
68719.0 246.0 0 88.05920191894884 251.0
68740.0 227.0 0 88.78132258255738 252.0
68763.0 366.0 500 89.5034432461659 253.0
68785.0 241.0 0 90.22556390977444 254.0
68808.0 256.0 0 89.83145825251088 255.0
68831.0 346.0 0 89.43735259524733 256.0
68852.0 346.0 0 89.04324693798378 256.0
68895.0 470.0 0 88.64914128072023 256.0
68917.0 332.0 0 88.25503562345668 256.0
68939.0 333.0 0 87.86092996619313 255.0
68962.0 326.0 0 87.46682430892957 255.0
68984.0 325.0 0 87.07271865166602 255.0
69007.0 311.0 0 86.67861299440247 255.0
69028.0 351.0 0 86.28450733713892 254.0
69051.0 532.0 0 85.89040167987537 254.0
69073.0 563.0 0 85.49629602261182 254.0
69096.0 558.0 0 85.10219036534826 254.0
69118.0 562.0 0 84.70808470808471 253.0
69140.0 563.0 0 84.31397905082116 253.0
69162.0 564.0 0 83.9198733935576 253.0
69185.0 558.0 0 83.52576773629406 252.0
69207.0 560.0 0 83.13166207903049 252.0
69230.0 564.0 0 82.73755642176694 252.0
69251.0 559.0 0 82.34345076450339 252.0
69274.0 556.0 0 81.94934510723984 251.0
69296.0 563.0 0 81.55523944997628 251.0
69319.0 564.0 0 81.16113379271273 251.0
69342.0 560.0 0 80.76702813544918 251.0
69363.0 560.0 0 80.37292247818563 251.0
69406.0 554.0 0 79.97881682092208 251.0
69429.0 325.0 0 79.58471116365853 251.0
69450.0 303.0 0 79.19060550639497 251.0
69473.0 316.0 0 78.79649984913142 251.0
69495.0 316.0 0 78.40239419186787 251.0
69518.0 291.0 0 78.00828853460432 251.0
69540.0 559.0 500 77.61418287734077 251.0
