Time	ECG	ECG_Normalized	Heart_Rate	EDA
0.0 516.0 500 0.0 435.0
20.0 489.0 0 0.0 435.0
41.0 509.0 0 34.883720930232556 434.0
63.0 556.0 0 69.76744186046511 434.0
-65.0 478.0 0 104.65116279069767 437.0
-43.0 456.0 0 139.53488372093022 436.0
-22.0 488.0 0 174.41860465116278 436.0
0.0 516.0 0 209.30232558139534 435.0
20.0 489.0 0 244.18604651162786 435.0
41.0 509.0 0 279.06976744186045 434.0
63.0 556.0 0 313.95348837209303 434.0
-65.0 478.0 0 348.83720930232556 437.0
-43.0 456.0 0 383.72093023255815 436.0
-22.0 488.0 0 418.6046511627907 436.0
0.0 516.0 0 453.48837209302326 435.0
20.0 489.0 0 488.37209302325573 435.0
41.0 509.0 0 523.2558139534883 434.0
63.0 556.0 0 558.1395348837209 434.0
-65.0 478.0 0 593.0232558139535 437.0
-43.0 456.0 0 627.9069767441861 436.0
-22.0 488.0 0 662.7906976744185 436.0
0.0 516.0 0 697.6744186046511 435.0
20.0 489.0 0 732.5581395348837 435.0
41.0 509.0 0 767.4418604651163 434.0
63.0 556.0 0 802.3255813953488 434.0
1539.0 404.0 0 837.2093023255813 438.0
1561.0 428.0 0 872.0930232558139 438.0
1585.0 398.0 0 906.9767441860465 438.0
1606.0 394.0 0 941.8604651162791 438.0
1629.0 383.0 0 976.7441860465115 437.0
1650.0 373.0 0 1011.627906976744 437.0
1673.0 395.0 0 1046.5116279069766 437.0
1694.0 408.0 0 1081.3953488372092 437.0
1715.0 403.0 0 1116.2790697674418 436.0
1736.0 374.0 0 1151.1627906976744 436.0
1758.0 341.0 0 1186.046511627907 436.0
1779.0 351.0 0 1220.9302325581396 436.0
1800.0 345.0 0 1255.8139534883721 435.0
1821.0 425.0 500 1290.6976744186047 435.0
1843.0 235.0 0 1325.581395348837 435.0
1864.0 311.0 500 1360.4651162790697 435.0
1885.0 311.0 0 1395.3488372093022 435.0
1927.0 262.0 0 1171.1964135612216 435.0
1947.0 308.0 500 947.0439899131409 435.0
1969.0 311.0 0 722.8915662650602 436.0
1990.0 329.0 0 695.6101035486059 436.0
2012.0 326.0 0 668.3286408321518 436.0
2032.0 333.0 0 641.0471781156975 436.0
2054.0 344.0 0 613.7657153992433 437.0
2075.0 322.0 0 586.4842526827891 437.0
2097.0 308.0 0 559.2027899663349 437.0
2117.0 305.0 0 531.9213272498807 438.0
2139.0 331.0 0 504.6398645334265 438.0
2160.0 296.0 0 477.3584018169722 438.0
2182.0 312.0 0 450.076939100518 438.0
2203.0 363.0 0 422.7954763840638 439.0
2224.0 329.0 0 395.5140136676096 439.0
2245.0 273.0 0 368.23255095115536 439.0
2267.0 270.0 0 340.95108823470116 439.0
2288.0 287.0 0 313.66962551824696 440.0
2309.0 326.0 0 286.3881628017927 440.0
2330.0 248.0 0 259.10670008533856 440.0
2352.0 195.0 0 231.8252373688843 440.0
2373.0 195.0 0 204.5437746524301 440.0
2414.0 173.0 0 177.26231193597584 440.0
2436.0 239.0 500 149.9808492195216 440.0
2456.0 265.0 0 122.69938650306749 440.0
2478.0 289.0 0 138.73133464521356 439.0
2499.0 237.0 0 154.76328278735966 439.0
2521.0 272.0 0 170.79523092950572 439.0
2541.0 294.0 0 186.8271790716518 439.0
2563.0 264.0 0 202.85912721379788 439.0
2584.0 241.0 0 218.89107535594397 438.0
2606.0 253.0 0 234.92302349809006 438.0
2626.0 227.0 0 250.95497164023612 438.0
2648.0 290.0 500 266.98691978238224 438.0
2669.0 241.0 0 283.0188679245283 437.0
2691.0 296.0 500 839.1838525669153 437.0
2711.0 298.0 0 1395.3488372093022 437.0
2733.0 268.0 0 1241.5308551547334 437.0
2754.0 253.0 0 1087.7128731001649 437.0
2776.0 273.0 0 933.8948910455961 436.0
2796.0 218.0 0 780.0769089910273 436.0
2818.0 351.0 500 626.2589269364585 436.0
2839.0 173.0 0 472.4409448818898 436.0
2861.0 236.0 500 933.8948910455961 436.0
2881.0 236.0 0 1395.3488372093022 435.0
2923.0 223.0 0 1171.1964135612216 435.0
2944.0 265.0 500 947.0439899131409 435.0
2965.0 266.0 0 722.8915662650602 435.0
2987.0 281.0 0 706.9043507546216 435.0
3008.0 310.0 0 690.9171352441831 435.0
3030.0 319.0 0 674.9299197337444 435.0
3050.0 344.0 0 658.9427042233059 435.0
3072.0 319.0 0 642.9554887128673 435.0
3093.0 313.0 0 626.9682732024288 435.0
3113.0 301.0 0 610.9810576919901 435.0
3135.0 338.0 0 594.9938421815516 435.0
3157.0 319.0 0 579.006626671113 435.0
3178.0 352.0 0 563.0194111606745 435.0
3198.0 381.0 0 547.0321956502358 435.0
3220.0 379.0 0 531.0449801397973 435.0
3241.0 347.0 0 515.0577646293588 435.0
3263.0 320.0 0 499.07054911892016 435.0
3283.0 330.0 0 483.0833336084816 435.0
3305.0 333.0 0 467.096118098043 435.0
3326.0 393.0 0 451.10890258760446 435.0
3348.0 255.0 0 435.12168707716586 435.0
3368.0 255.0 0 419.13447156672726 435.0
3410.0 287.0 0 403.1472560562887 435.0
3431.0 325.0 0 387.16004054585017 436.0
3452.0 339.0 0 371.17282503541156 436.0
3474.0 340.0 0 355.18560952497296 436.0
3495.0 349.0 0 339.1983940145345 437.0
3516.0 367.0 0 323.21117850409587 437.0
3537.0 391.0 0 307.22396299365727 437.0
3559.0 365.0 0 291.23674748321866 438.0
3580.0 372.0 0 275.2495319727801 438.0
3601.0 366.0 0 259.2623164623416 438.0
3622.0 363.0 0 243.27510095190303 439.0
3644.0 361.0 0 227.28788544146443 439.0
3665.0 378.0 0 211.30066993102582 439.0
3686.0 389.0 0 195.31345442058728 440.0
3707.0 408.0 0 179.32623891014873 440.0
3729.0 431.0 0 163.3390233997102 440.0
3749.0 395.0 0 147.35180788927153 441.0
3771.0 369.0 0 131.36459237883298 441.0
3792.0 366.0 0 115.37737686839432 441.0
3814.0 366.0 0 99.39016135795589 442.0
3834.0 446.0 500 83.40294584751723 442.0
3856.0 323.0 0 67.41573033707866 442.0
3877.0 323.0 0 68.53222090273337 442.0
3918.0 323.0 0 69.6487114683881 441.0
3940.0 362.0 0 70.76520203404282 440.0
3961.0 378.0 0 71.88169259969753 440.0
3982.0 381.0 0 72.99818316535226 439.0
4003.0 387.0 0 74.11467373100697 438.0
4025.0 397.0 0 75.2311642966617 438.0
4046.0 412.0 0 76.34765486231642 437.0
4067.0 429.0 0 77.46414542797113 437.0
4088.0 413.0 0 78.58063599362586 436.0
4110.0 407.0 0 79.69712655928058 435.0
4131.0 390.0 0 80.81361712493529 435.0
4152.0 385.0 0 81.93010769059002 434.0
4173.0 397.0 0 83.04659825624474 433.0
4195.0 399.0 0 84.16308882189946 433.0
4216.0 413.0 0 85.27957938755418 432.0
4237.0 423.0 0 86.3960699532089 431.0
4258.0 420.0 0 87.51256051886361 431.0
4280.0 403.0 0 88.62905108451834 430.0
4301.0 354.0 0 89.74554165017305 429.0
4322.0 361.0 0 90.86203221582778 429.0
4343.0 377.0 0 91.9785227814825 428.0
4365.0 372.0 0 93.09501334713721 428.0
4385.0 372.0 0 94.21150391279194 428.0
4427.0 286.0 0 95.32799447844666 429.0
4449.0 338.0 500 96.44448504410138 430.0
4469.0 344.0 0 97.5609756097561 430.0
4491.0 347.0 0 116.10676484123331 431.0
4512.0 348.0 0 134.65255407271053 431.0
4533.0 355.0 0 153.19834330418774 432.0
4554.0 351.0 0 171.744132535665 432.0
4576.0 367.0 0 190.2899217671422 433.0
4597.0 374.0 0 208.83571099861942 433.0
4618.0 352.0 0 227.38150023009663 434.0
4639.0 334.0 0 245.92728946157388 435.0
4661.0 374.0 500 264.4730786930511 435.0
4682.0 345.0 0 283.0188679245283 436.0
4703.0 326.0 0 506.13956274333634 436.0
4724.0 369.0 500 729.2602575621444 437.0
4746.0 350.0 0 952.3809523809524 437.0
4767.0 373.0 0 878.1564231801199 438.0
4788.0 354.0 0 803.9318939792873 438.0
4809.0 342.0 0 729.7073647784548 439.0
4831.0 305.0 0 655.4828355776224 440.0
4852.0 299.0 0 581.2583063767897 440.0
4873.0 299.0 0 507.0337771759573 440.0
4915.0 140.0 0 432.8092479751248 440.0
4935.0 245.0 500 358.58471877429224 440.0
4957.0 269.0 0 284.3601895734597 439.0
4978.0 254.0 0 277.1218418761085 439.0
5000.0 258.0 0 269.88349417875725 439.0
5020.0 262.0 0 262.64514648140596 439.0
5042.0 272.0 0 255.40679878405473 438.0
5063.0 266.0 0 248.1684510867035 438.0
5084.0 290.0 0 240.93010338935227 438.0
5105.0 316.0 0 233.691755692001 438.0
5127.0 283.0 0 226.45340799464975 437.0
5148.0 264.0 0 219.21506029729852 437.0
5169.0 261.0 0 211.9767125999473 437.0
5190.0 245.0 0 204.73836490259603 437.0
5212.0 248.0 0 197.5000172052448 436.0
5233.0 251.0 0 190.26166950789354 436.0
5254.0 248.0 0 183.0233218105423 436.0
5275.0 244.0 0 175.78497411319108 436.0
5297.0 236.0 0 168.54662641583982 435.0
5318.0 242.0 0 161.3082787184886 435.0
5339.0 266.0 0 154.06993102113734 435.0
5360.0 264.0 0 146.8315833237861 435.0
5382.0 264.0 0 139.59323562643485 435.0
5423.0 211.0 0 132.35488792908362 436.0
5444.0 294.0 500 125.11654023173236 436.0
5466.0 220.0 0 117.87819253438114 436.0
5486.0 185.0 0 158.56481699495373 437.0
5508.0 224.0 0 199.25144145552633 437.0
5529.0 258.0 0 239.93806591609894 437.0
5551.0 277.0 0 280.62469037667154 438.0
5571.0 258.0 0 321.31131483724414 438.0
5593.0 307.0 500 361.9979392978167 439.0
5614.0 292.0 0 402.6845637583893 439.0
5635.0 292.0 0 389.3070923272266 439.0
5656.0 325.0 0 375.92962089606385 440.0
5678.0 341.0 0 362.55214946490116 440.0
5699.0 354.0 0 349.1746780337385 440.0
5720.0 336.0 0 335.7972066025758 441.0
5741.0 326.0 0 322.41973517141304 441.0
5763.0 330.0 0 309.04226374025035 442.0
5784.0 360.0 0 295.6647923090876 442.0
5805.0 350.0 0 282.2873208779249 442.0
5826.0 373.0 0 268.9098494467622 443.0
5848.0 402.0 0 255.5323780155995 443.0
5869.0 402.0 0 242.15490658443682 444.0
5910.0 353.0 0 228.7774351532741 444.0
5932.0 372.0 0 215.3999637221114 444.0
5952.0 408.0 0 202.0224922909487 444.0
5974.0 434.0 0 188.64502085978597 444.0
5995.0 340.0 0 175.26754942862328 444.0
6017.0 331.0 0 161.89007799746057 444.0
6037.0 393.0 500 148.51260656629788 444.0
6059.0 407.0 0 135.13513513513513 444.0
6080.0 391.0 0 134.22148563657998 444.0
6102.0 405.0 0 133.3078361380248 444.0
6122.0 413.0 0 132.39418663946967 444.0
6144.0 442.0 0 131.4805371409145 444.0
6165.0 451.0 0 130.56688764235935 444.0
6185.0 437.0 0 129.65323814380417 444.0
6207.0 458.0 0 128.73958864524903 444.0
6229.0 446.0 0 127.82593914669386 444.0
6250.0 465.0 0 126.9122896481387 444.0
6270.0 456.0 0 125.99864014958354 444.0
6292.0 453.0 0 125.08499065102839 444.0
6313.0 444.0 0 124.17134115247322 444.0
6335.0 450.0 0 123.25769165391807 444.0
6355.0 445.0 0 122.3440421553629 444.0
6377.0 445.0 0 121.43039265680775 444.0
6418.0 450.0 0 120.5167431582526 443.0
6439.0 441.0 0 119.60309365969744 443.0
6461.0 442.0 0 118.68944416114228 443.0
6482.0 431.0 0 117.77579466258712 442.0
6503.0 433.0 0 116.86214516403196 442.0
6524.0 514.0 0 115.9484956654768 441.0
6546.0 353.0 0 115.03484616692164 441.0
6567.0 419.0 500 114.12119666836648 441.0
6588.0 432.0 0 113.20754716981132 440.0
6609.0 429.0 0 113.6618989084992 440.0
6631.0 433.0 0 114.11625064718707 439.0
6652.0 433.0 0 114.57060238587495 439.0
6673.0 429.0 0 115.02495412456281 438.0
6694.0 448.0 0 115.47930586325069 438.0
6716.0 429.0 0 115.93365760193856 438.0
6737.0 457.0 0 116.38800934062644 437.0
6758.0 460.0 0 116.84236107931432 437.0
6779.0 431.0 0 117.29671281800219 436.0
6801.0 426.0 0 117.75106455669007 436.0
6821.0 396.0 0 118.20541629537794 435.0
6843.0 403.0 0 118.6597680340658 435.0
6864.0 406.0 0 119.11411977275368 435.0
6886.0 406.0 0 119.56847151144156 434.0
6927.0 381.0 0 120.02282325012943 434.0
6948.0 409.0 0 120.47717498881731 434.0
6969.0 395.0 0 120.93152672750519 434.0
6990.0 360.0 0 121.38587846619306 434.0
7012.0 361.0 0 121.84023020488092 434.0
7033.0 340.0 0 122.2945819435688 434.0
7054.0 450.0 500 122.74893368225668 433.0
7075.0 244.0 0 123.20328542094455 433.0
7097.0 278.0 0 122.38131562795034 433.0
7118.0 319.0 0 121.55934583495615 433.0
7139.0 306.0 0 120.73737604196194 433.0
7160.0 308.0 0 119.91540624896773 433.0
7182.0 315.0 0 119.09343645597353 433.0
7203.0 291.0 0 118.27146666297932 432.0
7224.0 298.0 0 117.44949686998511 432.0
7245.0 309.0 0 116.62752707699092 432.0
7267.0 303.0 0 115.8055572839967 432.0
7288.0 315.0 0 114.9835874910025 432.0
7309.0 277.0 0 114.1616176980083 432.0
7330.0 271.0 0 113.33964790501409 432.0
7352.0 250.0 0 112.51767811201988 432.0
7372.0 250.0 0 111.69570831902568 431.0
7414.0 206.0 0 110.87373852603147 431.0
7436.0 241.0 0 110.05176873303726 431.0
7456.0 224.0 0 109.22979894004307 431.0
7478.0 224.0 0 108.40782914704886 431.0
7499.0 233.0 0 107.58585935405465 431.0
7520.0 239.0 0 106.76388956106045 431.0
7541.0 243.0 0 105.94191976806624 431.0
7563.0 225.0 0 105.11994997507205 431.0
7584.0 218.0 0 104.29798018207784 431.0
7605.0 223.0 0 103.47601038908363 431.0
7626.0 218.0 0 102.65404059608942 430.0
7648.0 292.0 500 101.83207080309522 430.0
7669.0 112.0 0 101.01010101010101 430.0
7690.0 199.0 500 764.7907647907649 430.0
7711.0 206.0 0 1428.5714285714287 430.0
7733.0 227.0 0 1375.7842883069743 430.0
7754.0 221.0 0 1322.9971480425202 430.0
7775.0 240.0 0 1270.210007778066 430.0
7796.0 247.0 0 1217.4228675136117 430.0
7818.0 245.0 0 1164.6357272491573 430.0
7839.0 268.0 0 1111.8485869847032 430.0
7860.0 285.0 0 1059.061446720249 430.0
7881.0 285.0 0 1006.2743064557947 429.0
7922.0 243.0 0 953.4871661913405 429.0
7944.0 274.0 0 900.7000259268862 429.0
7965.0 296.0 0 847.9128856624319 429.0
7987.0 312.0 0 795.1257453979778 429.0
8007.0 322.0 0 742.3386051335234 429.0
8029.0 336.0 0 689.5514648690692 429.0
8050.0 354.0 0 636.764324604615 429.0
8071.0 384.0 0 583.9771843401606 429.0
8092.0 387.0 0 531.1900440757064 429.0
8114.0 356.0 0 478.40290381125226 429.0
8135.0 348.0 0 425.615763546798 429.0
8156.0 367.0 0 372.82862328234364 429.0
8177.0 413.0 0 320.0414830178895 429.0
8199.0 357.0 0 267.25434275343514 429.0
8220.0 318.0 0 214.467202488981 429.0
8241.0 387.0 500 161.68006222452686 429.0
8262.0 394.0 0 108.8929219600726 429.0
8284.0 413.0 0 109.54339302647587 429.0
8305.0 413.0 0 110.19386409287914 429.0
8326.0 410.0 0 110.84433515928241 429.0
8347.0 438.0 0 111.49480622568568 429.0
8369.0 438.0 0 112.14527729208895 429.0
8410.0 418.0 0 112.79574835849222 429.0
8431.0 453.0 0 113.44621942489549 429.0
8453.0 473.0 0 114.09669049129876 429.0
8473.0 463.0 0 114.74716155770203 429.0
8495.0 454.0 0 115.3976326241053 429.0
8516.0 461.0 0 116.04810369050858 429.0
8538.0 487.0 0 116.69857475691185 429.0
8558.0 488.0 0 117.34904582331512 429.0
8580.0 490.0 0 117.9995168897184 429.0
8601.0 514.0 0 118.64998795612166 429.0
8622.0 511.0 0 119.30045902252493 430.0
8643.0 500.0 0 119.9509300889282 430.0
8665.0 476.0 0 120.60140115533147 430.0
8686.0 467.0 0 121.25187222173474 430.0
8707.0 459.0 0 121.90234328813801 430.0
8728.0 559.0 500 122.55281435454128 430.0
8750.0 377.0 0 123.20328542094455 430.0
8771.0 439.0 500 759.2760613151235 430.0
8792.0 475.0 0 1395.3488372093022 430.0
8813.0 467.0 0 1247.0336971998101 430.0
8835.0 455.0 0 1098.7185571903178 430.0
8856.0 478.0 0 950.4034171808257 430.0
8877.0 478.0 0 802.0882771713336 431.0
8919.0 412.0 0 653.7731371618414 431.0
8939.0 476.0 500 505.4579971523493 432.0
8961.0 479.0 0 357.14285714285717 432.0
8982.0 469.0 0 345.85084033613447 432.0
9004.0 456.0 0 334.55882352941177 432.0
9024.0 448.0 0 323.2668067226891 433.0
9046.0 434.0 0 311.9747899159664 433.0
9067.0 430.0 0 300.6827731092437 433.0
9089.0 438.0 0 289.390756302521 434.0
9109.0 439.0 0 278.0987394957983 434.0
9131.0 447.0 0 266.8067226890756 434.0
9152.0 466.0 0 255.51470588235296 434.0
9173.0 442.0 0 244.22268907563026 435.0
9194.0 416.0 0 232.93067226890759 435.0
9216.0 382.0 0 221.6386554621849 435.0
9237.0 384.0 0 210.3466386554622 436.0
9257.0 382.0 0 199.0546218487395 436.0
9279.0 427.0 500 187.76260504201682 436.0
9301.0 272.0 0 176.47058823529412 437.0
9322.0 335.0 500 785.9097127222982 437.0
9342.0 350.0 0 1395.3488372093022 437.0
9364.0 352.0 0 1211.517165005537 437.0
9385.0 352.0 0 1027.6854928017717 438.0
9426.0 271.0 0 843.8538205980066 440.0
9448.0 317.0 500 660.0221483942413 440.0
9469.0 356.0 0 476.1904761904762 441.0
9490.0 362.0 0 460.1456038827702 442.0
9511.0 345.0 0 444.10073157506423 442.0
9533.0 333.0 0 428.05585926735824 443.0
9554.0 320.0 0 412.01098695965226 444.0
9575.0 281.0 0 395.96611465194627 445.0
9596.0 296.0 0 379.92124234424034 445.0
9618.0 288.0 0 363.8763700365343 446.0
9639.0 295.0 0 347.83149772882837 447.0
9660.0 296.0 0 331.7866254211224 447.0
9681.0 278.0 0 315.7417531134164 448.0
9703.0 274.0 0 299.6968808057104 449.0
9724.0 275.0 0 283.6520084980044 450.0
9745.0 287.0 0 267.60713619029843 450.0
9766.0 272.0 0 251.56226388259242 451.0
9788.0 268.0 0 235.51739157488646 452.0
9808.0 262.0 0 219.47251926718047 452.0
9830.0 241.0 0 203.4276469594745 453.0
9851.0 240.0 0 187.3827746517685 454.0
9873.0 240.0 0 171.3379023440625 454.0
9914.0 141.0 0 155.29303003635653 454.0
9935.0 210.0 500 139.24815772865054 453.0
9956.0 234.0 0 123.20328542094455 453.0
9977.0 224.0 0 122.9919771533501 453.0
9999.0 226.0 0 122.78066888575565 452.0
10020.0 244.0 0 122.5693606181612 452.0
10041.0 240.0 0 122.35805235056675 451.0
10062.0 253.0 0 122.1467440829723 451.0
10084.0 266.0 0 121.93543581537784 451.0
10105.0 279.0 0 121.7241275477834 450.0
10126.0 268.0 0 121.51281928018895 450.0
10147.0 252.0 0 121.3015110125945 449.0
10169.0 242.0 0 121.09020274500004 449.0
10190.0 245.0 0 120.8788944774056 449.0
10211.0 255.0 0 120.66758620981115 448.0
10232.0 259.0 0 120.4562779422167 448.0
10254.0 278.0 0 120.24496967462224 448.0
10275.0 306.0 0 120.0336614070278 447.0
10296.0 297.0 0 119.82235313943335 447.0
10317.0 261.0 0 119.6110448718389 446.0
10339.0 251.0 0 119.39973660424444 446.0
10359.0 246.0 0 119.18842833664999 446.0
10381.0 246.0 0 118.97712006905554 446.0
10422.0 86.0 0 118.7658118014611 446.0
10442.0 217.0 500 118.55450353386664 446.0
10464.0 256.0 0 118.34319526627219 446.0
10485.0 264.0 0 118.55263273926577 446.0
10506.0 267.0 0 118.76207021225937 446.0
10527.0 276.0 0 118.97150768525296 446.0
10549.0 287.0 0 119.18094515824654 446.0
10570.0 297.0 0 119.39038263124013 446.0
10591.0 315.0 0 119.59982010423373 446.0
10612.0 321.0 0 119.80925757722731 446.0
10634.0 320.0 0 120.0186950502209 446.0
10654.0 316.0 0 120.22813252321448 446.0
10676.0 314.0 0 120.43756999620808 446.0
10697.0 304.0 0 120.64700746920167 446.0
10719.0 312.0 0 120.85644494219525 446.0
10739.0 320.0 0 121.06588241518885 446.0
10761.0 323.0 0 121.27531988818244 446.0
10782.0 338.0 0 121.48475736117602 446.0
10804.0 363.0 0 121.69419483416961 446.0
10824.0 381.0 0 121.9036323071632 446.0
10846.0 357.0 0 122.11306978015679 446.0
10867.0 357.0 0 122.32250725315038 446.0
10908.0 266.0 0 122.53194472614396 446.0
10930.0 366.0 500 122.74138219913756 446.0
10950.0 287.0 0 122.95081967213115 446.0
10972.0 276.0 0 399.42753057507156 446.0
10993.0 333.0 500 675.904241478012 447.0
11015.0 349.0 0 952.3809523809524 447.0
11035.0 358.0 0 916.1083125478881 447.0
11057.0 370.0 0 879.8356727148237 447.0
11078.0 383.0 0 843.5630328817593 447.0
11100.0 379.0 0 807.290393048695 447.0
11120.0 391.0 0 771.0177532156307 448.0
11142.0 420.0 0 734.7451133825664 448.0
11163.0 428.0 0 698.472473549502 448.0
11185.0 423.0 0 662.1998337164376 448.0
11205.0 407.0 0 625.9271938833733 448.0
11227.0 401.0 0 589.6545540503089 448.0
11248.0 403.0 0 553.3819142172446 449.0
11270.0 414.0 0 517.1092743841803 449.0
11290.0 415.0 0 480.83663455111594 449.0
11312.0 425.0 0 444.5639947180515 449.0
11333.0 415.0 0 408.2913548849872 449.0
11354.0 408.0 0 372.01871505192287 449.0
11375.0 408.0 0 335.74607521885855 449.0
11417.0 367.0 0 299.4734353857941 448.0
11438.0 393.0 0 263.2007955527298 448.0
11459.0 397.0 0 226.92815571966548 447.0
11481.0 397.0 0 190.65551588660117 447.0
11501.0 456.0 500 154.38287605353673 446.0
11523.0 351.0 0 118.11023622047244 446.0
11544.0 338.0 0 386.43246517262264 445.0
11566.0 388.0 500 654.7546941247729 445.0
11586.0 417.0 0 923.0769230769231 444.0
11608.0 406.0 0 878.041828481847 444.0
11629.0 417.0 0 833.0067338867709 443.0
11651.0 419.0 0 787.9716392916948 443.0
11671.0 425.0 0 742.9365446966189 442.0
11693.0 425.0 0 697.9014501015428 442.0
11714.0 440.0 0 652.8663555064667 441.0
11736.0 439.0 0 607.8312609113907 441.0
11756.0 441.0 0 562.7961663163146 440.0
11778.0 417.0 0 517.7610717212385 440.0
11799.0 408.0 0 472.7259771261624 439.0
11821.0 400.0 0 427.6908825310863 439.0
11841.0 404.0 0 382.65578793601026 438.0
11863.0 413.0 0 337.6206933409343 438.0
11884.0 413.0 0 292.5855987458582 438.0
11925.0 335.0 0 247.5505041507821 438.0
11947.0 410.0 500 202.51540955570601 438.0
11968.0 431.0 0 157.48031496062993 439.0
11989.0 403.0 0 210.5986751656043 439.0
12010.0 381.0 0 263.7170353705787 439.0
12032.0 380.0 0 316.8353955755531 439.0
12052.0 369.0 0 369.95375578052744 439.0
12073.0 443.0 500 423.07211598550185 440.0
12095.0 288.0 0 476.1904761904762 440.0
12117.0 311.0 0 456.81638306292047 440.0
12137.0 359.0 0 437.4422899353647 440.0
12158.0 361.0 0 418.068196807809 440.0
12180.0 358.0 0 398.6941036802533 441.0
12201.0 360.0 0 379.32001055269757 441.0
12222.0 367.0 0 359.94591742514183 441.0
12243.0 366.0 0 340.5718242975861 441.0
12265.0 376.0 0 321.19773117003035 441.0
12286.0 389.0 0 301.8236380424746 442.0
12307.0 385.0 0 282.4495449149189 442.0
12328.0 379.0 0 263.07545178736314 442.0
12350.0 359.0 0 243.70135865980743 442.0
12371.0 359.0 0 224.3272655322517 443.0
12412.0 265.0 0 204.95317240469598 443.0
12434.0 327.0 500 185.57907927714024 443.0
12454.0 356.0 0 166.2049861495845 443.0
12476.0 372.0 0 189.80806110573852 444.0
12497.0 387.0 0 213.41113606189253 444.0
12519.0 351.0 0 237.01421101804652 444.0
12539.0 321.0 0 260.6172859742005 444.0
12561.0 323.0 0 284.22036093035456 444.0
12582.0 308.0 0 307.82343588650855 445.0
12603.0 377.0 500 331.42651084266254 445.0
12624.0 237.0 0 355.0295857988166 445.0
12646.0 254.0 0 343.1603567750607 445.0
12667.0 290.0 0 331.29112775130477 446.0
12688.0 301.0 0 319.42189872754886 446.0
12709.0 290.0 0 307.55266970379296 446.0
12731.0 292.0 0 295.683440680037 446.0
12752.0 298.0 0 283.8142116562811 446.0
12773.0 297.0 0 271.9449826325252 447.0
12794.0 306.0 0 260.0757536087693 447.0
12816.0 307.0 0 248.20652458501337 447.0
12837.0 309.0 0 236.33729556125746 447.0
12858.0 302.0 0 224.46806653750153 447.0
12879.0 302.0 0 212.59883751374562 448.0
12920.0 185.0 0 200.7296084899897 448.0
12942.0 240.0 500 188.86037946623378 448.0
12963.0 259.0 0 176.99115044247787 448.0
12985.0 263.0 0 187.59392219068292 448.0
13005.0 269.0 0 198.19669393888796 449.0
13027.0 290.0 0 208.799465687093 449.0
13048.0 293.0 0 219.40223743529805 449.0
13070.0 264.0 0 230.0050091835031 449.0
13090.0 258.0 0 240.60778093170813 449.0
13112.0 254.0 0 251.21055267991318 449.0
13133.0 248.0 0 261.8133244281182 450.0
13154.0 326.0 500 272.41609617632326 450.0
13175.0 149.0 0 283.0188679245283 450.0
13197.0 214.0 500 839.1838525669153 450.0
13218.0 235.0 0 1395.3488372093022 450.0
13239.0 244.0 0 1281.6760224538893 450.0
13260.0 246.0 0 1168.0032076984762 451.0
13282.0 259.0 0 1054.3303929430633 451.0
13303.0 275.0 0 940.6575781876502 451.0
13324.0 271.0 0 826.9847634322373 451.0
13345.0 283.0 0 713.3119486768243 451.0
13367.0 283.0 0 599.6391339214114 452.0
13408.0 220.0 0 485.96631916599824 451.0
13429.0 267.0 500 372.29350441058534 451.0
13451.0 270.0 0 258.62068965517244 451.0
13471.0 291.0 0 253.18447180190256 451.0
13493.0 294.0 0 247.74825394863268 450.0
13514.0 303.0 0 242.3120360953628 450.0
13536.0 308.0 0 236.87581824209292 450.0
13556.0 316.0 0 231.43960038882304 450.0
13578.0 332.0 0 226.00338253555316 450.0
13599.0 352.0 0 220.5671646822833 450.0
13620.0 374.0 0 215.1309468290134 449.0
13641.0 345.0 0 209.69472897574354 449.0
13663.0 348.0 0 204.25851112247364 449.0
13684.0 343.0 0 198.82229326920378 449.0
13705.0 348.0 0 193.38607541593387 449.0
13726.0 365.0 0 187.94985756266402 449.0
13748.0 368.0 0 182.51363970939414 448.0
13769.0 269.0 0 177.07742185612426 448.0
13790.0 351.0 500 171.64120400285438 448.0
13811.0 358.0 0 166.2049861495845 448.0
13833.0 370.0 0 206.53136600900748 448.0
13854.0 384.0 0 246.85774586843047 448.0
13875.0 384.0 0 287.1841257278535 447.0
13917.0 332.0 0 327.5105055872765 447.0
13937.0 425.0 500 367.8368854466995 446.0
13959.0 421.0 0 408.16326530612247 446.0
13980.0 447.0 0 393.90341772067944 445.0
14002.0 446.0 0 379.6435701352364 445.0
14022.0 428.0 0 365.3837225497934 444.0
14044.0 426.0 0 351.1238749643504 444.0
14065.0 437.0 0 336.8640273789074 444.0
14087.0 433.0 0 322.60417979346437 443.0
14107.0 456.0 0 308.34433220802134 443.0
14129.0 458.0 0 294.0844846225783 442.0
14150.0 464.0 0 279.8246370371353 442.0
14171.0 473.0 0 265.56478945169226 441.0
14192.0 483.0 0 251.30494186624927 441.0
14214.0 472.0 0 237.04509428080624 441.0
14235.0 455.0 0 222.78524669536324 440.0
14256.0 448.0 0 208.52539910992022 440.0
14277.0 448.0 0 194.26555152447722 439.0
14299.0 534.0 500 180.0057039390342 439.0
14320.0 345.0 0 165.74585635359117 438.0
14341.0 414.0 500 797.15864246251 438.0
14362.0 448.0 0 1428.5714285714287 438.0
14384.0 448.0 0 1214.2857142857144 438.0
14425.0 359.0 0 1000.0 438.0
14446.0 430.0 500 785.7142857142858 439.0
14468.0 461.0 0 571.4285714285714 439.0
14488.0 466.0 0 551.0432190760059 439.0
14510.0 483.0 0 530.6578667234405 440.0
14531.0 484.0 0 510.27251437087506 440.0
14553.0 484.0 0 489.8871620183096 440.0
14573.0 463.0 0 469.5018096657441 440.0
14595.0 450.0 0 449.11645731317867 441.0
14616.0 453.0 0 428.73110496061315 441.0
14638.0 429.0 0 408.3457526080477 441.0
14658.0 449.0 0 387.9604002554822 442.0
14680.0 454.0 0 367.57504790291676 442.0
14701.0 465.0 0 347.1896955503513 442.0
14722.0 463.0 0 326.80434319778584 442.0
14743.0 445.0 0 306.4189908452204 443.0
14765.0 431.0 0 286.0336384926549 443.0
14786.0 408.0 0 265.64828614008945 443.0
14807.0 423.0 0 245.26293378752393 444.0
14828.0 470.0 0 224.87758143495853 444.0
14850.0 364.0 0 204.492229082393 444.0
14871.0 364.0 0 184.10687672982755 444.0
14912.0 311.0 0 163.72152437726209 444.0
14934.0 371.0 500 143.33617202469662 444.0
14954.0 403.0 0 122.95081967213115 444.0
14976.0 407.0 0 122.75048817622424 444.0
14997.0 412.0 0 122.55015668031733 443.0
15019.0 412.0 0 122.3498251844104 443.0
15039.0 420.0 0 122.1494936885035 443.0
15061.0 422.0 0 121.94916219259659 443.0
15082.0 422.0 0 121.74883069668968 443.0
15104.0 397.0 0 121.54849920078277 443.0
15124.0 388.0 0 121.34816770487586 442.0
15145.0 384.0 0 121.14783620896894 442.0
15167.0 379.0 0 120.94750471306203 442.0
15189.0 365.0 0 120.74717321715512 442.0
15209.0 380.0 0 120.54684172124821 442.0
15230.0 390.0 0 120.3465102253413 442.0
15252.0 406.0 0 120.1461787294344 441.0
15272.0 397.0 0 119.94584723352747 441.0
15294.0 358.0 0 119.74551573762056 441.0
15315.0 340.0 0 119.54518424171366 441.0
15337.0 337.0 0 119.34485274580675 441.0
15357.0 320.0 0 119.14452124989984 441.0
15379.0 320.0 0 118.94418975399293 441.0
15420.0 170.0 0 118.74385825808601 441.0
15441.0 271.0 500 118.5435267621791 441.0
15463.0 281.0 0 118.34319526627219 441.0
15484.0 297.0 0 118.32297775618997 441.0
15505.0 298.0 0 118.30276024610775 441.0
15526.0 319.0 0 118.28254273602553 441.0
15548.0 308.0 0 118.26232522594331 441.0
15569.0 316.0 0 118.2421077158611 441.0
15590.0 322.0 0 118.22189020577888 441.0
15611.0 325.0 0 118.20167269569666 441.0
15633.0 307.0 0 118.18145518561444 441.0
15653.0 292.0 0 118.16123767553222 441.0
15675.0 277.0 0 118.14102016545 441.0
15696.0 276.0 0 118.12080265536778 441.0
15718.0 279.0 0 118.10058514528555 441.0
15738.0 283.0 0 118.08036763520333 441.0
15760.0 275.0 0 118.06015012512111 441.0
15781.0 276.0 0 118.0399326150389 441.0
15803.0 270.0 0 118.01971510495667 441.0
15823.0 280.0 0 117.99949759487446 441.0
15845.0 286.0 0 117.97928008479224 441.0
15866.0 276.0 0 117.95906257471002 441.0
15888.0 276.0 0 117.9388450646278 441.0
15929.0 133.0 0 117.91862755454558 441.0
15950.0 217.0 500 117.89841004446336 441.0
15971.0 331.0 0 117.87819253438114 442.0
15992.0 143.0 0 391.0854616895874 442.0
16014.0 219.0 500 664.2927308447937 442.0
16034.0 245.0 0 937.5 442.0
16056.0 248.0 0 895.6233669279582 442.0
16077.0 249.0 0 853.7467338559164 443.0
16099.0 257.0 0 811.8701007838746 443.0
16119.0 265.0 0 769.9934677118327 443.0
16141.0 271.0 0 728.116834639791 443.0
16162.0 272.0 0 686.2402015677492 443.0
16184.0 305.0 0 644.3635684957073 444.0
16204.0 320.0 0 602.4869354236655 444.0
16226.0 294.0 0 560.6103023516238 444.0
16247.0 264.0 0 518.733669279582 444.0
16269.0 260.0 0 476.85703620754015 445.0
16289.0 273.0 0 434.98040313549836 445.0
16311.0 277.0 0 393.1037700634565 445.0
16332.0 287.0 0 351.2271369914148 445.0
16354.0 312.0 0 309.35050391937295 445.0
16374.0 312.0 0 267.4738708473311 446.0
16416.0 189.0 0 225.59723777528927 446.0
16437.0 249.0 500 183.72060470324755 446.0
16458.0 268.0 0 141.84397163120568 446.0
16480.0 277.0 0 226.68272447477585 446.0
16501.0 374.0 0 311.52147731834606 446.0
16522.0 199.0 0 396.3602301619162 446.0
16543.0 249.0 500 481.1989830054864 446.0
16565.0 292.0 0 566.0377358490566 446.0
16586.0 304.0 0 542.8624935624327 446.0
16607.0 301.0 0 519.6872512758088 446.0
16628.0 320.0 0 496.5120089891849 446.0
16650.0 325.0 0 473.336766702561 446.0
16670.0 346.0 0 450.16152441593704 446.0
16692.0 352.0 0 426.98628212931317 446.0
16713.0 360.0 0 403.8110398426893 446.0
16735.0 378.0 0 380.63579755606537 446.0
16755.0 364.0 0 357.46055526944144 446.0
16777.0 358.0 0 334.2853129828175 446.0
16798.0 359.0 0 311.1100706961936 446.0
16820.0 352.0 0 287.9348284095697 446.0
16840.0 374.0 0 264.7595861229458 446.0
16862.0 374.0 0 241.58434383632192 446.0
16883.0 374.0 0 218.409101549698 446.0
16924.0 312.0 0 195.23385926307412 446.0
16946.0 406.0 500 172.0586169764502 446.0
16967.0 398.0 0 148.8833746898263 446.0
16988.0 396.0 0 147.71609790487713 446.0
17009.0 394.0 0 146.54882111992796 446.0
17031.0 395.0 0 145.3815443349788 446.0
17052.0 478.0 0 144.2142675500296 446.0
17073.0 334.0 0 143.04699076508044 446.0
17094.0 362.0 0 141.87971398013127 446.0
17116.0 407.0 0 140.7124371951821 446.0
17137.0 430.0 0 139.54516041023294 445.0
17158.0 417.0 0 138.37788362528377 445.0
17179.0 431.0 0 137.2106068403346 445.0
17201.0 448.0 0 136.0433300553854 445.0
17221.0 457.0 0 134.87605327043624 445.0
17243.0 448.0 0 133.70877648548708 445.0
17264.0 472.0 0 132.5414997005379 445.0
17286.0 475.0 0 131.37422291558875 445.0
17306.0 467.0 0 130.20694613063958 445.0
17328.0 459.0 0 129.0396693456904 445.0
17349.0 423.0 0 127.87239256074123 445.0
17371.0 423.0 0 126.70511577579207 445.0
17412.0 355.0 0 125.53783899084289 445.0
17433.0 429.0 500 124.37056220589372 445.0
17454.0 452.0 0 123.20328542094455 445.0
17475.0 462.0 0 151.92052180215 445.0
17497.0 479.0 0 180.63775818335546 445.0
17518.0 445.0 0 209.35499456456094 445.0
17539.0 437.0 0 238.0722309457664 445.0
17560.0 428.0 0 266.7894673269718 445.0
17582.0 417.0 0 295.5067037081773 445.0
17603.0 522.0 500 324.2239400893828 445.0
17624.0 322.0 0 352.94117647058823 446.0
17645.0 391.0 500 890.7563025210084 446.0
17667.0 404.0 0 1428.5714285714287 446.0
17688.0 423.0 0 1334.2738342738344 446.0
17709.0 420.0 0 1239.97623997624 446.0
17730.0 411.0 0 1145.6786456786458 446.0
17752.0 422.0 0 1051.3810513810513 446.0
17772.0 435.0 0 957.0834570834571 446.0
17794.0 436.0 0 862.7858627858628 446.0
17815.0 436.0 0 768.4882684882685 446.0
17837.0 439.0 0 674.1906741906741 446.0
17857.0 411.0 0 579.89307989308 446.0
17879.0 411.0 0 485.59548559548557 447.0
17920.0 291.0 0 391.2978912978913 447.0
17941.0 357.0 500 297.000297000297 447.0
17963.0 379.0 0 202.7027027027027 447.0
17984.0 385.0 0 210.6014465169395 447.0
18005.0 404.0 0 218.50019033117624 447.0
18026.0 401.0 0 226.39893414541302 447.0
18048.0 399.0 0 234.29767795964977 447.0
18069.0 382.0 0 242.19642177388656 447.0
18089.0 333.0 0 250.09516558812334 447.0
18111.0 341.0 0 257.9939094023601 447.0
18133.0 340.0 0 265.89265321659684 447.0
18154.0 402.0 500 273.79139703083365 447.0
18174.0 230.0 0 281.6901408450704 447.0
18196.0 300.0 500 855.1307847082496 447.0
18217.0 318.0 0 1428.5714285714287 447.0
18239.0 313.0 0 1357.498223169865 447.0
18259.0 322.0 0 1286.4250177683014 447.0
18281.0 321.0 0 1215.3518123667377 447.0
18302.0 321.0 0 1144.2786069651743 447.0
18324.0 327.0 0 1073.2054015636106 447.0
18344.0 367.0 0 1002.132196162047 447.0
18366.0 336.0 0 931.0589907604833 447.0
18387.0 336.0 0 859.9857853589198 448.0
18428.0 221.0 0 788.9125799573561 448.0
18450.0 253.0 0 717.8393745557925 448.0
18471.0 278.0 0 646.7661691542288 448.0
18492.0 285.0 0 575.6929637526653 448.0
18513.0 329.0 0 504.6197583511016 448.0
18535.0 271.0 0 433.54655294953807 449.0
18555.0 265.0 0 362.4733475479743 449.0
18577.0 263.0 0 291.4001421464109 449.0
18598.0 303.0 500 220.32693674484722 449.0
18620.0 272.0 0 149.2537313432836 449.0
18640.0 246.0 0 167.3922056384743 449.0
18662.0 240.0 0 185.530679933665 449.0
18683.0 256.0 0 203.66915422885572 449.0
18705.0 198.0 0 221.80762852404644 450.0
18725.0 201.0 0 239.94610281923715 450.0
18747.0 291.0 0 258.0845771144279 450.0
18768.0 121.0 0 276.22305140961856 450.0
18790.0 186.0 500 294.3615257048093 450.0
18810.0 195.0 0 312.5 450.0
18832.0 204.0 0 328.4438775510204 450.0
18853.0 223.0 0 344.38775510204084 450.0
18875.0 223.0 0 360.3316326530612 450.0
18916.0 135.0 0 376.2755102040816 450.0
18937.0 234.0 500 392.21938775510205 450.0
18958.0 270.0 0 408.16326530612247 449.0
18979.0 272.0 0 394.2135318350726 449.0
19001.0 260.0 0 380.26379836402276 449.0
19021.0 261.0 0 366.3140648929729 448.0
19043.0 243.0 0 352.36433142192305 448.0
19064.0 232.0 0 338.4145979508732 448.0
19086.0 261.0 0 324.46486447982335 447.0
19106.0 272.0 0 310.5151310087735 447.0
19128.0 301.0 0 296.56539753772364 447.0
19149.0 313.0 0 282.6156640666738 447.0
19171.0 293.0 0 268.66593059562393 446.0
19191.0 280.0 0 254.71619712457408 446.0
19213.0 296.0 0 240.76646365352426 446.0
19234.0 280.0 0 226.8167301824744 445.0
19256.0 298.0 0 212.86699671142455 445.0
19276.0 288.0 0 198.9172632403747 445.0
19298.0 230.0 0 184.96752976932484 444.0
19319.0 293.0 500 171.017796298275 444.0
19341.0 285.0 0 157.06806282722513 444.0
19361.0 304.0 0 220.89254549987535 444.0
19383.0 304.0 0 284.7170281725256 444.0
19424.0 244.0 0 348.5415108451758 444.0
19445.0 322.0 500 412.36599351782604 444.0
19467.0 372.0 0 476.1904761904762 445.0
19488.0 396.0 0 458.9443906796695 445.0
19509.0 406.0 0 441.69830516886276 445.0
19530.0 381.0 0 424.45221965805604 445.0
19552.0 392.0 0 407.2061341472493 446.0
19572.0 382.0 0 389.9600486364426 446.0
19594.0 409.0 0 372.7139631256359 446.0
19615.0 415.0 0 355.46787761482915 446.0
19637.0 431.0 0 338.2217921040225 447.0
19657.0 440.0 0 320.9757065932157 447.0
19679.0 487.0 0 303.72962108240904 447.0
19700.0 461.0 0 286.48353557160226 447.0
19722.0 461.0 0 269.2374500607956 448.0
19742.0 445.0 0 251.99136454998884 448.0
19764.0 435.0 0 234.74527903918215 448.0
19785.0 471.0 0 217.49919352837543 449.0
19807.0 476.0 0 200.2531080175687 449.0
19827.0 371.0 0 183.00702250676198 449.0
19849.0 438.0 500 165.76093699595526 449.0
19870.0 438.0 0 148.5148514851485 449.0
19911.0 368.0 0 337.1051390853371 449.0
19933.0 413.0 500 525.6954266855257 449.0
19954.0 420.0 0 714.2857142857143 449.0
19975.0 469.0 0 683.329178093576 449.0
19996.0 451.0 0 652.3726419014378 448.0
20018.0 431.0 0 621.4161057092995 448.0
20039.0 451.0 0 590.4595695171612 448.0
20060.0 420.0 0 559.5030333250229 448.0
20081.0 412.0 0 528.5464971328846 448.0
20103.0 410.0 0 497.5899609407463 448.0
20123.0 392.0 0 466.63342474860804 447.0
20145.0 412.0 0 435.67688855646975 447.0
20166.0 435.0 0 404.72035236433146 447.0
20188.0 420.0 0 373.7638161721932 447.0
20208.0 395.0 0 342.8072799800549 447.0
20230.0 395.0 0 311.8507437879166 447.0
20251.0 368.0 0 280.8942075957783 446.0
20273.0 380.0 0 249.93767140364002 446.0
20293.0 325.0 0 218.98113521150174 446.0
20315.0 374.0 500 188.02459901936345 446.0
20336.0 298.0 0 157.06806282722513 446.0
20358.0 265.0 0 220.89254549987535 446.0
20378.0 265.0 0 284.7170281725256 446.0
20420.0 252.0 0 348.5415108451758 446.0
20441.0 304.0 500 412.36599351782604 446.0
20462.0 326.0 0 476.1904761904762 446.0
20484.0 341.0 0 458.9637866378104 446.0
20505.0 353.0 0 441.7370970851446 446.0
20526.0 359.0 0 424.51040753247884 446.0
20547.0 352.0 0 407.2837179798131 446.0
20569.0 353.0 0 390.0570284271473 446.0
20590.0 350.0 0 372.8303388744815 446.0
20611.0 338.0 0 355.60364932181574 446.0
20632.0 330.0 0 338.37695976914995 447.0
20654.0 328.0 0 321.15027021648416 447.0
20674.0 340.0 0 303.92358066381837 447.0
20696.0 374.0 0 286.6968911111526 447.0
20717.0 372.0 0 269.4702015584868 447.0
20739.0 374.0 0 252.24351200582103 447.0
20759.0 378.0 0 235.01682245315524 447.0
20781.0 367.0 0 217.79013290048948 447.0
20802.0 354.0 0 200.5634433478237 447.0
20824.0 352.0 0 183.3367537951579 447.0
20844.0 419.0 500 166.11006424249211 447.0
20866.0 292.0 0 148.8833746898263 447.0
20887.0 292.0 0 253.17196497963388 447.0
20928.0 270.0 0 357.46055526944144 447.0
20950.0 337.0 500 461.7491455592491 447.0
20971.0 362.0 0 566.0377358490566 447.0
20992.0 363.0 0 545.9088971932333 447.0
21013.0 393.0 0 525.78005853741 447.0
21035.0 397.0 0 505.6512198815868 446.0
21056.0 402.0 0 485.5223812257635 446.0
21077.0 437.0 0 465.3935425699402 446.0
21098.0 403.0 0 445.264703914117 446.0
21120.0 387.0 0 425.1358652582937 446.0
21141.0 387.0 0 405.00702660247043 446.0
21161.0 393.0 0 384.87818794664713 446.0
21183.0 355.0 0 364.74934929082383 446.0
21205.0 363.0 0 344.6205106350006 445.0
21226.0 375.0 0 324.49167197917734 445.0
21246.0 409.0 0 304.36283332335404 445.0
21268.0 401.0 0 284.23399466753074 445.0
21289.0 416.0 0 264.1051560117075 445.0
21310.0 366.0 0 243.9763173558842 445.0
21331.0 373.0 0 223.84747870006095 445.0
21353.0 386.0 0 203.71864004423765 445.0
21374.0 386.0 0 183.5898013884144 444.0
21415.0 213.0 0 163.4609627325911 444.0
21437.0 319.0 500 143.3321240767678 444.0
21457.0 358.0 0 123.20328542094455 443.0
21479.0 364.0 0 122.98184849918489 443.0
21500.0 349.0 0 122.76041157742524 443.0
21522.0 387.0 0 122.53897465566558 442.0
21542.0 394.0 0 122.31753773390592 442.0
21564.0 396.0 0 122.09610081214628 442.0
21585.0 398.0 0 121.87466389038661 441.0
21607.0 418.0 0 121.65322696862695 441.0
21627.0 421.0 0 121.43179004686729 441.0
21649.0 396.0 0 121.21035312510764 441.0
21670.0 358.0 0 120.98891620334798 440.0
21692.0 369.0 0 120.76747928158832 440.0
21712.0 395.0 0 120.54604235982868 440.0
21734.0 390.0 0 120.32460543806901 439.0
21755.0 411.0 0 120.10316851630935 439.0
21777.0 417.0 0 119.8817315945497 439.0
21797.0 403.0 0 119.66029467279004 438.0
21819.0 400.0 0 119.43885775103038 438.0
21840.0 389.0 0 119.21742082927072 438.0
21861.0 378.0 0 118.99598390751108 438.0
21882.0 378.0 0 118.77454698575141 438.0
21924.0 213.0 0 118.55311006399175 438.0
21945.0 291.0 500 118.3316731422321 438.0
21966.0 352.0 0 118.11023622047244 438.0
21988.0 383.0 0 118.34173845685754 438.0
22008.0 379.0 0 118.57324069324264 438.0
22030.0 379.0 0 118.80474292962774 438.0
22051.0 394.0 0 119.03624516601283 439.0
22073.0 385.0 0 119.26774740239793 439.0
22093.0 408.0 0 119.49924963878301 439.0
22115.0 414.0 0 119.73075187516811 439.0
22136.0 427.0 0 119.96225411155321 439.0
22158.0 409.0 0 120.1937563479383 439.0
22178.0 372.0 0 120.4252585843234 439.0
22200.0 361.0 0 120.6567608207085 439.0
22221.0 358.0 0 120.8882630570936 440.0
22243.0 354.0 0 121.1197652934787 440.0
22263.0 336.0 0 121.35126752986379 440.0
22285.0 365.0 0 121.58276976624889 440.0
22306.0 378.0 0 121.81427200263398 440.0
22328.0 393.0 0 122.04577423901907 440.0
22348.0 378.0 0 122.27727647540416 440.0
22370.0 378.0 0 122.50877871178926 441.0
22411.0 220.0 0 122.74028094817436 441.0
22432.0 362.0 500 122.97178318455946 441.0
22454.0 238.0 0 123.20328542094455 441.0
22474.0 292.0 500 775.8873569961867 441.0
22496.0 291.0 0 1428.5714285714287 441.0
22517.0 302.0 0 1329.1316526610644 441.0
22539.0 320.0 0 1229.6918767507004 441.0
22559.0 320.0 0 1130.2521008403362 441.0
22581.0 308.0 0 1030.812324929972 441.0
22602.0 319.0 0 931.3725490196078 441.0
22624.0 358.0 0 831.9327731092437 441.0
22644.0 346.0 0 732.4929971988795 441.0
22666.0 355.0 0 633.0532212885155 441.0
22687.0 324.0 0 533.6134453781513 441.0
22708.0 298.0 0 434.173669467787 441.0
22729.0 346.0 500 334.733893557423 441.0
22751.0 336.0 0 235.2941176470588 441.0
22772.0 315.0 0 240.7459034166589 441.0
22793.0 328.0 0 246.197689186259 441.0
22814.0 326.0 0 251.64947495585912 441.0
22836.0 359.0 0 257.1012607254592 441.0
22857.0 401.0 0 262.55304649505933 441.0
22878.0 401.0 0 268.0048322646594 441.0
22920.0 213.0 0 273.4566180342595 441.0
22940.0 287.0 500 278.9084038038596 441.0
22962.0 386.0 0 284.3601895734597 441.0
22983.0 215.0 0 497.26576740794746 441.0
23005.0 304.0 500 710.1713452424353 441.0
23025.0 300.0 0 923.0769230769231 441.0
23047.0 316.0 0 852.0710059171598 442.0
23068.0 331.0 0 781.0650887573964 442.0
23089.0 337.0 0 710.0591715976332 442.0
23110.0 347.0 0 639.0532544378698 442.0
23132.0 360.0 0 568.0473372781065 442.0
23153.0 358.0 0 497.04142011834324 442.0
23174.0 408.0 500 426.0355029585799 442.0
23195.0 381.0 0 355.0295857988166 442.0
23217.0 360.0 0 343.38479032989943 443.0
23238.0 368.0 0 331.7399948609823 443.0
23259.0 353.0 0 320.0951993920651 443.0
23280.0 365.0 0 308.45040392314803 443.0
23302.0 379.0 0 296.8056084542309 443.0
23323.0 361.0 0 285.1608129853137 443.0
23344.0 357.0 0 273.5160175163966 443.0
23365.0 394.0 0 261.8712220474794 443.0
23387.0 394.0 0 250.22642657856227 444.0
23428.0 317.0 0 238.58163110964514 444.0
23449.0 306.0 0 226.936835640728 444.0
23471.0 339.0 0 215.29204017181084 444.0
23491.0 356.0 0 203.64724470289372 444.0
23513.0 460.0 0 192.00244923397656 444.0
23534.0 273.0 0 180.35765376505944 444.0
23556.0 327.0 500 168.7128582961423 444.0
23576.0 361.0 0 157.06806282722513 444.0
23598.0 387.0 0 161.7691209314246 444.0
23619.0 358.0 0 166.47017903562406 444.0
23641.0 364.0 0 171.17123713982352 444.0
23661.0 382.0 0 175.872295244023 444.0
23683.0 390.0 0 180.57335334822247 444.0
23704.0 395.0 0 185.27441145242193 444.0
23725.0 376.0 0 189.9754695566214 444.0
23746.0 392.0 0 194.67652766082085 444.0
23768.0 379.0 0 199.3775857650203 444.0
23789.0 358.0 0 204.0786438692198 444.0
23810.0 319.0 0 208.77970197341926 444.0
23831.0 382.0 500 213.48076007761873 444.0
23853.0 357.0 0 218.1818181818182 444.0
23874.0 357.0 0 305.1457975986278 444.0
23915.0 282.0 0 392.10977701543743 444.0
23937.0 346.0 500 479.073756432247 444.0
23957.0 327.0 0 566.0377358490566 443.0
23979.0 296.0 0 543.0902600713922 443.0
24000.0 299.0 0 520.1427842937277 443.0
24022.0 319.0 0 497.1953085160633 443.0
24042.0 351.0 0 474.2478327383988 442.0
24064.0 212.0 0 451.30035696073435 442.0
24085.0 286.0 500 428.3528811830699 442.0
24107.0 319.0 0 405.4054054054054 442.0
24127.0 313.0 0 390.51325001882105 441.0
24149.0 319.0 0 375.6210946322367 441.0
24170.0 311.0 0 360.7289392456523 441.0
24192.0 345.0 0 345.83678385906796 441.0
24212.0 338.0 0 330.9446284724836 440.0
24233.0 352.0 0 316.0524730858993 440.0
24255.0 375.0 0 301.16031769931493 440.0
24277.0 379.0 0 286.26816231273057 440.0
24297.0 324.0 0 271.3760069261462 439.0
24318.0 316.0 0 256.48385153956184 439.0
24340.0 303.0 0 241.5916961529775 439.0
24360.0 313.0 0 226.69954076639314 439.0
24382.0 313.0 0 211.80738537980878 438.0
24423.0 251.0 0 196.91522999322444 438.0
24444.0 327.0 500 182.02307460664008 437.0
24466.0 338.0 0 167.13091922005572 437.0
24487.0 314.0 0 165.12273287696823 437.0
24508.0 305.0 0 163.11454653388074 437.0
24529.0 319.0 0 161.10636019079328 436.0
24551.0 396.0 0 159.0981738477058 436.0
24572.0 264.0 0 157.0899875046183 436.0
24593.0 303.0 0 155.08180116153085 435.0
24614.0 333.0 0 153.07361481844336 435.0
24636.0 348.0 0 151.06542847535587 435.0
24657.0 362.0 0 149.05724213226839 434.0
24678.0 362.0 0 147.0490557891809 434.0
24699.0 379.0 0 145.04086944609344 434.0
24721.0 375.0 0 143.03268310300595 434.0
24742.0 382.0 0 141.02449675991846 433.0
24763.0 419.0 0 139.016310416831 433.0
24784.0 394.0 0 137.00812407374352 433.0
24806.0 385.0 0 134.99993773065603 432.0
24827.0 387.0 0 132.99175138756854 432.0
24848.0 381.0 0 130.98356504448105 432.0
24869.0 381.0 0 128.9753787013936 432.0
24910.0 275.0 0 126.96719235830611 432.0
24932.0 382.0 500 124.95900601521862 432.0
24953.0 416.0 0 122.95081967213115 432.0
24974.0 402.0 0 144.19363144794437 433.0
24995.0 382.0 0 165.4364432237576 433.0
25017.0 410.0 0 186.67925499957084 433.0
25038.0 363.0 0 207.92206677538408 433.0
25059.0 384.0 0 229.16487855119732 433.0
25080.0 432.0 0 250.40769032701053 434.0
25102.0 279.0 0 271.6505021028238 434.0
25123.0 376.0 500 292.893313878637 434.0
25144.0 346.0 0 314.13612565445027 434.0
25165.0 376.0 0 305.21743438981287 434.0
25187.0 363.0 0 296.29874312517546 435.0
25208.0 374.0 0 287.3800518605381 435.0
25229.0 399.0 0 278.4613605959007 435.0
25250.0 379.0 0 269.5426693312633 435.0
25272.0 389.0 0 260.6239780666259 436.0
25293.0 423.0 0 251.70528680198854 436.0
25314.0 388.0 0 242.78659553735116 436.0
25335.0 336.0 0 233.86790427271376 436.0
25357.0 321.0 0 224.94921300807636 436.0
25377.0 321.0 0 216.03052174343898 437.0
25419.0 218.0 0 207.1118304788016 437.0
25440.0 288.0 500 198.1931392141642 438.0
25461.0 337.0 0 189.2744479495268 438.0
25483.0 321.0 0 203.1479676945183 439.0
25504.0 280.0 0 217.0214874395098 439.0
25525.0 261.0 0 230.89500718450128 439.0
25546.0 247.0 0 244.7685269294928 440.0
25568.0 270.0 0 258.6420466744843 440.0
25589.0 313.0 0 272.51556641947576 440.0
25610.0 144.0 0 286.38908616446724 441.0
25631.0 214.0 500 300.2626059094588 441.0
25653.0 219.0 0 314.13612565445027 442.0
25674.0 232.0 0 326.78590252644153 442.0
25695.0 252.0 0 339.43567939843285 442.0
25716.0 270.0 0 352.0854562704241 443.0
25738.0 267.0 0 364.73523314241544 443.0
25759.0 229.0 0 377.3850100144067 444.0
25780.0 329.0 500 390.034786886398 444.0
25801.0 255.0 0 402.6845637583893 444.0
25823.0 305.0 500 899.0167004838459 445.0
25844.0 268.0 0 1395.3488372093022 445.0
25865.0 278.0 0 1212.2790697674418 445.0
25886.0 278.0 0 1029.2093023255813 445.0
25927.0 93.0 0 846.1395348837209 445.0
25948.0 209.0 500 663.0697674418604 444.0
25969.0 225.0 0 480.0 444.0
25990.0 327.0 0 536.4705882352941 444.0
26011.0 200.0 0 592.9411764705883 444.0
26033.0 264.0 500 649.4117647058823 443.0
26054.0 249.0 0 705.8823529411765 443.0
26075.0 277.0 0 677.9134295227525 443.0
26096.0 435.0 0 649.9445061043285 442.0
26118.0 172.0 0 621.9755826859046 442.0
26139.0 250.0 500 594.0066592674806 442.0
26160.0 340.0 0 566.0377358490566 441.0
26181.0 282.0 0 538.088887145491 441.0
26203.0 301.0 0 510.14003844192524 441.0
26224.0 304.0 0 482.1911897383595 441.0
26245.0 322.0 0 454.24234103479387 440.0
26266.0 354.0 0 426.2934923312282 440.0
26288.0 411.0 0 398.3446436276625 440.0
26309.0 367.0 0 370.39579492409683 439.0
26330.0 379.0 0 342.4469462205311 439.0
26351.0 403.0 0 314.49809751696546 439.0
26373.0 403.0 0 286.54924881339974 439.0
26414.0 280.0 0 258.6004001098341 439.0
26435.0 368.0 500 230.65155140626837 439.0
26456.0 448.0 0 202.7027027027027 439.0
26477.0 476.0 0 207.5852075852076 439.0
26499.0 488.0 0 212.46771246771246 440.0
26520.0 496.0 0 217.35021735021735 440.0
26541.0 448.0 0 222.23272223272224 440.0
26562.0 457.0 0 227.11522711522713 440.0
26584.0 482.0 0 231.997731997732 440.0
26605.0 556.0 0 236.88023688023688 440.0
26626.0 452.0 0 241.76274176274177 441.0
26647.0 426.0 0 246.64524664524666 441.0
26669.0 507.0 500 251.52775152775152 441.0
26690.0 498.0 0 256.4102564102564 441.0
26711.0 516.0 0 253.2909102252168 441.0
26732.0 547.0 0 250.17156404017717 441.0
26754.0 535.0 0 247.05221785513757 442.0
26775.0 528.0 0 243.93287167009794 442.0
26796.0 557.0 0 240.81352548505834 442.0
26817.0 559.0 0 237.69417930001873 442.0
26839.0 553.0 0 234.5748331149791 442.0
26859.0 520.0 0 231.4554869299395 442.0
26881.0 520.0 0 228.33614074489986 442.0
26921.0 431.0 0 225.21679455986026 442.0
26943.0 551.0 500 222.09744837482066 442.0
26965.0 559.0 0 218.97810218978103 442.0
26986.0 555.0 0 217.71840073902484 442.0
27006.0 561.0 0 216.4586992882687 442.0
27028.0 560.0 0 215.1989978375125 442.0
27049.0 559.0 0 213.93929638675635 442.0
27071.0 560.0 0 212.67959493600017 442.0
27091.0 525.0 0 211.41989348524402 442.0
27113.0 559.0 0 210.16019203448784 442.0
27134.0 525.0 0 208.90049058373165 441.0
27156.0 519.0 0 207.6407891329755 441.0
27176.0 558.0 0 206.38108768221932 441.0
27198.0 558.0 0 205.12138623146316 441.0
27219.0 489.0 0 203.86168478070698 441.0
27241.0 536.0 500 202.60198332995083 441.0
27261.0 561.0 0 201.34228187919464 441.0
27283.0 558.0 0 327.4772996446901 441.0
27304.0 508.0 0 453.6123174101856 441.0
27326.0 559.0 500 579.747335175681 441.0
27346.0 554.0 0 705.8823529411765 441.0
27368.0 559.0 0 659.9439775910364 441.0
27389.0 559.0 0 614.0056022408963 440.0
27430.0 376.0 0 568.0672268907563 439.0
27452.0 473.0 500 522.1288515406162 439.0
27472.0 504.0 0 476.1904761904762 438.0
27494.0 483.0 0 456.87331536388143 438.0
27515.0 496.0 0 437.5561545372866 437.0
27537.0 524.0 0 418.23899371069183 437.0
27557.0 421.0 0 398.92183288409706 436.0
27579.0 389.0 0 379.6046720575023 436.0
27600.0 403.0 0 360.28751123090746 435.0
27622.0 465.0 0 340.9703504043127 434.0
27642.0 241.0 0 321.65318957771785 434.0
27664.0 334.0 500 302.3360287511231 433.0
27685.0 413.0 0 283.0188679245283 433.0
27707.0 289.0 0 277.6157804459691 432.0
27727.0 323.0 0 272.21269296740996 432.0
27749.0 408.0 0 266.80960548885076 431.0
27770.0 298.0 0 261.4065180102916 431.0
27792.0 319.0 0 256.0034305317324 430.0
27812.0 366.0 0 250.60034305317325 430.0
27834.0 326.0 0 245.19725557461408 429.0
27855.0 295.0 0 239.7941680960549 429.0
27877.0 295.0 0 234.39108061749573 429.0
27918.0 114.0 0 228.98799313893653 429.0
27939.0 210.0 500 223.58490566037736 429.0
27960.0 230.0 0 218.1818181818182 430.0
27981.0 274.0 0 235.287789133943 430.0
28003.0 319.0 0 252.3937600860678 430.0
28023.0 239.0 0 269.4997310381926 431.0
28045.0 191.0 0 286.60570199031736 431.0
28066.0 170.0 0 303.7116729424422 431.0
28088.0 140.0 0 320.81764389456697 432.0
28108.0 236.0 500 337.92361484669175 432.0
28130.0 87.0 0 355.0295857988166 432.0
28150.0 173.0 500 891.8005071851227 432.0
28172.0 129.0 0 1428.5714285714287 433.0
28192.0 202.0 500 1428.5714285714287 433.0
28214.0 130.0 0 1428.5714285714287 433.0
28235.0 184.0 500 1411.9601328903655 434.0
28257.0 177.0 0 1395.3488372093022 434.0
28277.0 109.0 0 1355.5561991369573 434.0
28299.0 134.0 0 1315.7635610646123 434.0
28320.0 157.0 0 1275.9709229922673 435.0
28342.0 203.0 0 1236.1782849199224 435.0
28362.0 110.0 0 1196.3856468475774 435.0
28384.0 110.0 0 1156.5930087752324 435.0
28425.0 110.0 0 1116.8003707028874 434.0
28446.0 110.0 0 1077.0077326305423 434.0
28468.0 77.0 0 1037.2150945581975 433.0
28487.0 110.0 0 997.4224564858523 433.0
28509.0 171.0 0 957.6298184135075 432.0
28530.0 171.0 0 917.8371803411624 431.0
28552.0 53.0 0 878.0445422688175 431.0
28571.0 86.0 0 838.2519041964724 430.0
28592.0 86.0 0 798.4592661241275 430.0
28612.0 110.0 0 758.6666280517825 429.0
28633.0 110.0 0 718.8739899794375 429.0
28654.0 110.0 0 679.0813519070925 428.0
28676.0 110.0 0 639.2887138347475 428.0
28697.0 110.0 0 599.4960757624025 427.0
28718.0 91.0 0 559.7034376900576 427.0
28738.0 62.0 0 519.9107996177127 426.0
28759.0 62.0 0 480.11816154536757 425.0
28778.0 72.0 0 440.3255234730226 425.0
28798.0 144.0 0 400.5328854006776 424.0
28820.0 78.0 0 360.74024732833277 424.0
28840.0 90.0 0 320.9476092559876 423.0
28860.0 121.0 0 281.1549711836426 423.0
28881.0 121.0 0 241.36233311129763 422.0
28922.0 121.0 0 201.56969503895266 422.0
28944.0 121.0 0 161.7770569666077 422.0
28965.0 193.0 500 121.98441889426272 422.0
28986.0 143.0 0 82.1917808219178 422.0
29007.0 221.0 500 755.3816046966733 422.0
29029.0 191.0 0 1428.5714285714287 422.0
29050.0 177.0 0 1264.8809523809525 422.0
29071.0 245.0 500 1101.1904761904761 422.0
29092.0 306.0 0 937.5 422.0
29114.0 138.0 0 937.5 422.0
29135.0 269.0 500 937.5 422.0
29156.0 353.0 0 937.5 422.0
29177.0 317.0 0 879.5955882352941 422.0
29199.0 263.0 0 821.6911764705883 422.0
29220.0 399.0 500 763.7867647058823 422.0
29241.0 377.0 0 705.8823529411765 422.0
29262.0 412.0 0 661.0451906084322 422.0
29284.0 430.0 0 616.208028275688 422.0
29305.0 442.0 0 571.3708659429437 422.0
29326.0 493.0 0 526.5337036101994 422.0
29347.0 413.0 0 481.6965412774552 422.0
29369.0 428.0 0 436.85937894471095 422.0
29390.0 428.0 0 392.0222166119667 422.0
29431.0 393.0 0 347.1850542792224 422.0
29453.0 516.0 500 302.34789194647817 423.0
29473.0 562.0 0 257.51072961373393 423.0
29495.0 522.0 0 293.33243215842657 423.0
29516.0 543.0 0 329.1541347031192 424.0
29537.0 543.0 0 364.97583724781185 424.0
29558.0 504.0 0 400.7975397925045 424.0
29580.0 558.0 500 436.61924233719714 425.0
29601.0 484.0 0 472.4409448818898 425.0
29622.0 487.0 0 457.8990239650171 425.0
29643.0 553.0 0 443.3571030481444 426.0
29665.0 558.0 0 428.81518213127174 426.0
29686.0 556.0 0 414.27326121439904 427.0
29707.0 556.0 0 399.73134029752634 427.0
29728.0 554.0 0 385.18941938065365 427.0
29750.0 552.0 0 370.64749846378095 428.0
29771.0 552.0 0 356.1055775469083 428.0
29792.0 553.0 0 341.5636566300356 428.0
29813.0 558.0 0 327.0217357131629 429.0
29835.0 557.0 0 312.4798147962902 429.0
29856.0 553.0 0 297.9378938794175 429.0
29877.0 553.0 0 283.3959729625449 429.0
29919.0 555.0 0 268.8540520456721 429.0
29939.0 556.0 0 254.31213112879948 429.0
29961.0 553.0 0 239.77021021192678 429.0
29982.0 556.0 0 225.22828929505408 429.0
30004.0 552.0 0 210.68636837818144 428.0
30024.0 556.0 0 196.14444746130874 428.0
30046.0 553.0 0 181.60252654443605 428.0
30067.0 557.0 0 167.06060562756335 428.0
30088.0 549.0 0 152.51868471069065 428.0
30109.0 507.0 0 137.97676379381795 428.0
30131.0 557.0 500 123.43484287694531 427.0
30152.0 535.0 0 108.8929219600726 427.0
30173.0 514.0 0 114.6344595307479 427.0
30194.0 510.0 0 120.3759971014232 427.0
30216.0 534.0 0 126.1175346720985 427.0
30237.0 514.0 0 131.8590722427738 427.0
30258.0 507.0 0 137.6006098134491 426.0
30279.0 488.0 0 143.3421473841244 426.0
30301.0 484.0 0 149.0836849547997 426.0
30322.0 479.0 0 154.825222525475 426.0
30343.0 453.0 0 160.5667600961503 426.0
30364.0 435.0 0 166.3082976668256 426.0
30386.0 435.0 0 172.0498352375009 426.0
30427.0 395.0 0 177.7913728081762 426.0
30448.0 436.0 500 183.5329103788515 426.0
30470.0 417.0 0 189.2744479495268 426.0
30490.0 388.0 0 264.62710552943275 426.0
30512.0 372.0 0 339.9797631093387 426.0
30533.0 353.0 0 415.3324206892447 426.0
30554.0 415.0 500 490.68507826915067 426.0
30575.0 274.0 0 566.0377358490566 426.0
30597.0 269.0 0 545.9088971932333 426.0
30618.0 293.0 0 525.78005853741 426.0
30639.0 309.0 0 505.6512198815868 426.0
30660.0 291.0 0 485.5223812257635 426.0
30682.0 278.0 0 465.3935425699402 426.0
30703.0 282.0 0 445.264703914117 426.0
30724.0 267.0 0 425.1358652582937 426.0
30745.0 279.0 0 405.00702660247043 426.0
30767.0 274.0 0 384.87818794664713 426.0
30787.0 285.0 0 364.74934929082383 426.0
30809.0 261.0 0 344.6205106350006 426.0
30830.0 246.0 0 324.49167197917734 426.0
30852.0 202.0 0 304.36283332335404 426.0
30872.0 199.0 0 284.23399466753074 426.0
30894.0 199.0 0 264.1051560117075 426.0
30935.0 154.0 0 243.9763173558842 426.0
30956.0 168.0 0 223.84747870006095 426.0
30978.0 163.0 0 203.71864004423765 426.0
30999.0 156.0 0 183.5898013884144 426.0
31020.0 146.0 0 163.4609627325911 426.0
31041.0 209.0 500 143.3321240767678 426.0
31063.0 85.0 0 123.20328542094455 426.0
31082.0 79.0 0 121.83342738983009 426.0
31102.0 110.0 0 120.46356935871562 426.0
31124.0 125.0 0 119.09371132760116 426.0
31145.0 105.0 0 117.72385329648668 426.0
31166.0 99.0 0 116.35399526537222 426.0
31186.0 116.0 0 114.98413723425774 426.0
31208.0 111.0 0 113.61427920314328 426.0
31228.0 111.0 0 112.24442117202881 426.0
31250.0 112.0 0 110.87456314091435 426.0
31271.0 143.0 0 109.50470510979989 426.0
31293.0 99.0 0 108.13484707868541 426.0
31312.0 78.0 0 106.76498904757095 426.0
31333.0 82.0 0 105.39513101645647 426.0
31353.0 81.0 0 104.02527298534201 426.0
31373.0 81.0 0 102.65541495422755 426.0
31414.0 81.0 0 101.28555692311308 426.0
31433.0 89.0 0 99.9156988919986 426.0
31454.0 95.0 0 98.54584086088414 427.0
31474.0 102.0 0 97.17598282976968 427.0
31495.0 73.0 0 95.8061247986552 427.0
31515.0 92.0 0 94.43626676754074 428.0
31536.0 175.0 0 93.06640873642627 428.0
31556.0 175.0 0 91.69655070531181 428.0
31578.0 94.0 0 90.32669267419735 429.0
31598.0 125.0 0 88.95683464308287 429.0
31620.0 131.0 0 87.5869766119684 429.0
31640.0 132.0 0 86.21711858085393 430.0
31662.0 150.0 0 84.84726054973947 430.0
31683.0 167.0 0 83.47740251862501 430.0
31705.0 198.0 0 82.10754448751054 431.0
31725.0 207.0 0 80.73768645639606 431.0
31747.0 215.0 0 79.3678284252816 431.0
31768.0 230.0 0 77.99797039416714 432.0
31789.0 223.0 0 76.62811236305267 432.0
31810.0 224.0 0 75.25825433193819 432.0
31832.0 229.0 0 73.88839630082373 433.0
31853.0 254.0 0 72.51853826970927 433.0
31874.0 254.0 0 71.14868023859479 433.0
31916.0 243.0 0 69.77882220748033 433.0
31936.0 286.0 500 68.40896417636586 433.0
31958.0 279.0 0 67.0391061452514 433.0
31979.0 303.0 0 226.74991784423267 433.0
32001.0 280.0 0 386.4607295432139 433.0
32021.0 389.0 500 546.1715412421952 433.0
32043.0 231.0 0 705.8823529411765 433.0
32064.0 292.0 500 1050.6155950752393 433.0
32086.0 330.0 0 1395.3488372093022 433.0
32106.0 331.0 0 1337.5240394007405 433.0
32128.0 356.0 0 1279.6992415921789 433.0
32149.0 379.0 0 1221.8744437836172 433.0
32171.0 377.0 0 1164.0496459750555 433.0
32191.0 395.0 0 1106.2248481664938 433.0
32213.0 425.0 0 1048.4000503579318 433.0
32234.0 423.0 0 990.5752525493702 433.0
32256.0 432.0 0 932.7504547408084 433.0
32276.0 416.0 0 874.9256569322467 433.0
32297.0 431.0 0 817.100859123685 433.0
32319.0 427.0 0 759.2760613151233 433.0
32341.0 437.0 0 701.4512635065616 433.0
32361.0 455.0 0 643.6264656979998 433.0
32382.0 455.0 0 585.8016678894382 433.0
32423.0 415.0 0 527.9768700808766 433.0
32445.0 437.0 0 470.15207227231474 433.0
32466.0 452.0 0 412.32727446375304 434.0
32487.0 453.0 0 354.50247665519123 434.0
32508.0 556.0 0 296.67767884662953 434.0
32530.0 375.0 0 238.85288103806784 434.0
32551.0 460.0 500 181.02808322950614 435.0
32572.0 450.0 0 123.20328542094455 435.0
32593.0 473.0 0 124.62995704699354 435.0
32615.0 485.0 0 126.05662867304252 435.0
32636.0 478.0 0 127.48330029909151 436.0
32657.0 492.0 0 128.9099719251405 436.0
32678.0 491.0 0 130.33664355118947 436.0
32700.0 514.0 0 131.76331517723847 436.0
32721.0 525.0 0 133.18998680328747 437.0
32742.0 528.0 0 134.61665842933644 437.0
32763.0 499.0 0 136.0433300553854 437.0
32785.0 497.0 0 137.4700016814344 437.0
32806.0 494.0 0 138.8966733074834 438.0
32827.0 487.0 0 140.32334493353238 438.0
32848.0 518.0 0 141.75001655958135 438.0
32870.0 519.0 0 143.17668818563035 438.0
32891.0 519.0 0 144.60335981167935 438.0
32932.0 399.0 0 146.03003143772833 438.0
32954.0 462.0 500 147.4567030637773 438.0
32974.0 466.0 0 148.8833746898263 438.0
32996.0 531.0 0 288.13311925266385 438.0
33017.0 374.0 0 427.3828638155014 438.0
33039.0 440.0 500 566.6326083783389 438.0
33059.0 457.0 0 705.8823529411765 438.0
33081.0 449.0 0 690.273858136125 438.0
33102.0 441.0 0 674.6653633310735 438.0
33123.0 442.0 0 659.0568685260221 438.0
33144.0 444.0 0 643.4483737209705 437.0
33166.0 443.0 0 627.839878915919 437.0
33187.0 460.0 0 612.2313841108676 437.0
33208.0 431.0 0 596.6228893058161 437.0
33229.0 440.0 0 581.0143945007646 437.0
33251.0 427.0 0 565.4058996957132 437.0
33272.0 413.0 0 549.7974048906617 437.0
33293.0 395.0 0 534.1889100856101 437.0
33314.0 407.0 0 518.5804152805588 437.0
33336.0 414.0 0 502.97192047550726 437.0
33357.0 408.0 0 487.36342567045574 437.0
33378.0 408.0 0 471.7549308654043 436.0
33420.0 281.0 0 456.1464360603528 436.0
33440.0 315.0 0 440.53794125530135 436.0
33462.0 395.0 0 424.9294464502499 436.0
33483.0 262.0 0 409.32095164519836 435.0
33505.0 263.0 0 393.7124568401469 435.0
33525.0 293.0 0 378.10396203509544 435.0
33547.0 304.0 0 362.4954672300439 435.0
33568.0 304.0 0 346.88697242499245 435.0
33590.0 299.0 0 331.27847761994104 434.0
33610.0 299.0 0 315.6699828148895 434.0
33632.0 285.0 0 300.06148800983806 434.0
33653.0 284.0 0 284.45299320478654 434.0
33674.0 292.0 0 268.8444983997351 433.0
33695.0 310.0 0 253.2360035946836 433.0
33717.0 292.0 0 237.62750878963215 433.0
33738.0 248.0 0 222.01901398458062 433.0
33759.0 244.0 0 206.41051917952916 433.0
33780.0 244.0 0 190.8020243744777 432.0
33802.0 253.0 0 175.19352956942623 432.0
33823.0 271.0 0 159.58503476437477 432.0
33844.0 260.0 0 143.9765399593233 432.0
33865.0 224.0 0 128.36804515427173 432.0
33887.0 224.0 0 112.75955034922026 432.0
33928.0 132.0 0 97.1510555441688 432.0
33949.0 234.0 500 81.54256073911733 432.0
33971.0 92.0 0 65.93406593406593 433.0
33990.0 144.0 500 764.6743500402038 433.0
34012.0 165.0 0 1463.4146341463415 433.0
34033.0 172.0 0 1402.48446076115 433.0
34055.0 161.0 0 1341.5542873759587 434.0
34075.0 169.0 0 1280.6241139907675 434.0
34097.0 184.0 0 1219.693940605576 434.0
34118.0 190.0 0 1158.7637672203846 434.0
34139.0 202.0 0 1097.8335938351934 435.0
34160.0 213.0 0 1036.9034204500017 435.0
34182.0 216.0 0 975.9732470648105 435.0
34203.0 222.0 0 915.043073679619 435.0
34224.0 194.0 0 854.1129002944277 436.0
34245.0 197.0 0 793.1827269092363 436.0
34267.0 209.0 0 732.252553524045 436.0
34288.0 234.0 0 671.3223801388535 436.0
34309.0 251.0 0 610.3922067536621 437.0
34330.0 237.0 0 549.4620333684708 437.0
34352.0 222.0 0 488.53185998327933 437.0
34373.0 222.0 0 427.601686598088 438.0
34414.0 199.0 0 366.67151321289657 436.0
34436.0 173.0 0 305.74133982770513 435.0
34456.0 160.0 0 244.81116644251392 435.0
34478.0 233.0 500 183.88099305732248 434.0
34499.0 251.0 0 122.95081967213115 433.0
34521.0 249.0 0 123.22722658330905 432.0
34541.0 272.0 0 123.50363349448693 432.0
34563.0 287.0 0 123.78004040566483 431.0
34584.0 302.0 0 124.05644731684274 430.0
34605.0 303.0 0 124.33285422802062 430.0
34626.0 323.0 0 124.60926113919852 429.0
34648.0 346.0 0 124.88566805037642 428.0
34669.0 352.0 0 125.16207496155431 427.0
34690.0 348.0 0 125.43848187273221 427.0
34711.0 332.0 0 125.71488878391011 426.0
34733.0 342.0 0 125.991295695088 425.0
34754.0 365.0 0 126.2677026062659 425.0
34775.0 409.0 0 126.5441095174438 424.0
34796.0 414.0 0 126.82051642862169 423.0
34818.0 406.0 0 127.09692333979959 422.0
34839.0 388.0 0 127.37333025097749 422.0
34860.0 409.0 0 127.64973716215538 421.0
34881.0 409.0 0 127.92614407333328 421.0
34922.0 280.0 0 128.20255098451116 422.0
34944.0 373.0 500 128.47895789568906 422.0
34965.0 414.0 0 128.75536480686696 423.0
34987.0 411.0 0 144.31584728352624 424.0
35007.0 448.0 0 159.8763297601855 424.0
35029.0 454.0 0 175.4368122368448 425.0
35050.0 472.0 0 190.99729471350406 425.0
35072.0 459.0 0 206.55777719016334 426.0
35092.0 493.0 0 222.1182596668226 427.0
35113.0 527.0 0 237.67874214348188 427.0
35135.0 479.0 0 253.23922462014116 428.0
35155.0 521.0 500 268.79970709680043 428.0
35177.0 485.0 0 284.3601895734597 429.0
35198.0 488.0 0 278.0263443770553 430.0
35220.0 519.0 0 271.6924991806508 430.0
35240.0 516.0 0 265.3586539842464 431.0
35262.0 527.0 0 259.02480878784195 431.0
35283.0 558.0 0 252.6909635914375 432.0
35305.0 536.0 0 246.35711839503307 433.0
35325.0 520.0 0 240.02327319862866 433.0
35347.0 491.0 0 233.6894280022242 434.0
35368.0 516.0 0 227.35558280581978 434.0
35390.0 516.0 0 221.02173760941534 434.0
35431.0 351.0 0 214.6878924130109 434.0
35452.0 479.0 500 208.35404721660646 434.0
35473.0 497.0 0 202.02020202020202 434.0
35494.0 477.0 0 201.09137350516662 434.0
35516.0 498.0 0 200.1625449901312 434.0
35537.0 500.0 0 199.23371647509578 434.0
35558.0 511.0 0 198.30488796006037 434.0
35579.0 507.0 0 197.37605944502496 434.0
35601.0 506.0 0 196.44723092998956 434.0
35622.0 532.0 0 195.51840241495415 434.0
35643.0 515.0 0 194.58957389991872 433.0
35664.0 469.0 0 193.6607453848833 433.0
35686.0 486.0 0 192.7319168698479 433.0
35707.0 511.0 0 191.8030883548125 433.0
35728.0 501.0 0 190.8742598397771 433.0
35749.0 500.0 0 189.94543132474166 433.0
35771.0 557.0 500 189.01660280970626 433.0
35791.0 446.0 0 188.08777429467085 433.0
35813.0 417.0 0 212.23850041584032 433.0
35834.0 437.0 0 236.3892265370098 433.0
35856.0 377.0 0 260.5399526581793 433.0
35876.0 377.0 0 284.69067877934873 433.0
35918.0 272.0 0 308.8414049005182 433.0
35939.0 350.0 500 332.99213102168767 433.0
35960.0 379.0 0 357.14285714285717 433.0
35982.0 315.0 0 550.5952380952381 433.0
36003.0 384.0 500 744.047619047619 433.0
36024.0 377.0 0 937.5 433.0
36045.0 315.0 0 897.3665730337078 433.0
36067.0 339.0 0 857.2331460674158 433.0
36088.0 381.0 0 817.0997191011236 433.0
36109.0 300.0 0 776.9662921348315 433.0
36130.0 299.0 0 736.8328651685393 434.0
36152.0 286.0 0 696.6994382022472 434.0
36173.0 294.0 0 656.5660112359551 434.0
36194.0 230.0 0 616.4325842696629 434.0
36215.0 260.0 0 576.2991573033707 434.0
36237.0 258.0 0 536.1657303370787 434.0
36258.0 265.0 0 496.0323033707865 434.0
36279.0 223.0 0 455.89887640449444 434.0
36300.0 220.0 0 415.76544943820227 434.0
36322.0 170.0 0 375.6320224719102 434.0
36343.0 200.0 0 335.498595505618 434.0
36364.0 321.0 0 295.36516853932585 434.0
36385.0 321.0 0 255.2317415730338 435.0
36426.0 149.0 0 215.0983146067416 435.0
36448.0 209.0 500 174.96488764044955 436.0
36469.0 232.0 0 134.8314606741573 436.0
36490.0 215.0 0 139.63065648458908 436.0
36511.0 235.0 0 144.42985229502085 436.0
36533.0 246.0 0 149.22904810545262 437.0
36554.0 234.0 0 154.02824391588436 437.0
36575.0 252.0 0 158.82743972631613 437.0
36596.0 273.0 0 163.6266355367479 438.0
36618.0 276.0 0 168.42583134717967 438.0
36639.0 244.0 0 173.22502715761144 438.0
36660.0 239.0 0 178.0242229680432 439.0
36681.0 272.0 0 182.82341877847495 439.0
36703.0 308.0 0 187.62261458890674 439.0
36724.0 263.0 0 192.42181039933848 439.0
36745.0 321.0 500 197.22100620977025 440.0
36766.0 274.0 0 202.02020202020202 440.0
36788.0 257.0 0 327.98573975044565 440.0
36809.0 229.0 0 453.9512774806892 441.0
36830.0 284.0 500 579.9168152109328 441.0
36851.0 359.0 0 705.8823529411765 441.0
36873.0 359.0 0 691.5347665170485 442.0
36914.0 122.0 0 677.1871800929207 441.0
36935.0 156.0 0 662.8395936687928 441.0
36957.0 187.0 0 648.4920072446649 440.0
36977.0 196.0 0 634.1444208205371 440.0
36999.0 230.0 0 619.7968343964092 440.0
37020.0 204.0 0 605.4492479722812 440.0
37041.0 220.0 0 591.1016615481534 439.0
37062.0 261.0 0 576.7540751240255 439.0
37084.0 268.0 0 562.4064886998976 439.0
37105.0 243.0 0 548.0589022757697 439.0
37126.0 251.0 0 533.7113158516419 438.0
37147.0 260.0 0 519.363729427514 438.0
37169.0 274.0 0 505.0161430033861 438.0
37190.0 288.0 0 490.6685565792582 438.0
37211.0 316.0 0 476.32097015513034 437.0
37232.0 350.0 0 461.9733837310024 437.0
37254.0 316.0 0 447.6257973068745 437.0
37275.0 305.0 0 433.2782108827467 437.0
37296.0 308.0 0 418.9306244586188 436.0
37317.0 327.0 0 404.58303803449087 436.0
37339.0 407.0 0 390.23545161036304 436.0
37360.0 243.0 0 375.88786518623516 436.0
37381.0 243.0 0 361.5402787621073 436.0
37423.0 247.0 0 347.19269233797934 436.0
37443.0 309.0 0 332.8451059138515 437.0
37465.0 354.0 0 318.49751948972363 437.0
37486.0 336.0 0 304.1499330655957 438.0
37507.0 335.0 0 289.8023466414678 438.0
37528.0 362.0 0 275.45476021734 438.0
37550.0 375.0 0 261.10717379321204 439.0
37571.0 382.0 0 246.75958736908416 439.0
37592.0 384.0 0 232.41200094495633 439.0
37613.0 375.0 0 218.0644145208284 440.0
37635.0 356.0 0 203.7168280967005 440.0
37656.0 362.0 0 189.36924167257257 441.0
37677.0 370.0 0 175.02165524844474 441.0
37698.0 411.0 0 160.67406882431692 441.0
37720.0 441.0 0 146.32648240018898 442.0
37741.0 414.0 0 131.97889597606115 442.0
37762.0 403.0 0 117.63130955193321 443.0
37783.0 370.0 0 103.28372312780527 443.0
37805.0 363.0 0 88.93613670367745 443.0
37826.0 418.0 500 74.58855027954962 444.0
37847.0 365.0 0 60.24096385542169 444.0
37868.0 304.0 0 143.4308663224326 444.0
37890.0 304.0 0 226.6207687894435 444.0
37931.0 295.0 0 309.8106712564544 444.0
37952.0 358.0 500 393.0005737234653 444.0
37974.0 384.0 0 476.1904761904762 444.0
37994.0 387.0 0 458.46145322585113 444.0
38016.0 393.0 0 440.7324302612261 443.0
38037.0 424.0 0 423.00340729660104 443.0
38057.0 428.0 0 405.27438433197597 443.0
38079.0 416.0 0 387.5453613673509 443.0
38101.0 412.0 0 369.8163384027258 443.0
38122.0 419.0 0 352.08731543810075 443.0
38142.0 400.0 0 334.35829247347573 442.0
38164.0 411.0 0 316.62926950885065 442.0
38185.0 468.0 0 298.9002465442256 442.0
38207.0 412.0 0 281.1712235796005 442.0
38227.0 437.0 0 263.4422006149755 442.0
38249.0 401.0 0 245.71317765035042 441.0
38270.0 388.0 0 227.98415468572534 441.0
38292.0 387.0 0 210.25513172110027 441.0
38312.0 346.0 0 192.52610875647525 441.0
38334.0 455.0 500 174.79708579185018 441.0
38355.0 299.0 0 157.06806282722513 441.0
38377.0 299.0 0 155.52875476330328 440.0
38418.0 303.0 0 153.98944669938143 439.0
38439.0 346.0 0 152.4501386354596 438.0
38460.0 370.0 0 150.91083057153776 438.0
38481.0 368.0 0 149.3715225076159 437.0
38503.0 390.0 0 147.83221444369406 436.0
38524.0 419.0 0 146.29290637977223 436.0
38545.0 427.0 0 144.75359831585038 435.0
38566.0 435.0 0 143.21429025192853 434.0
38588.0 431.0 0 141.67498218800668 434.0
38609.0 429.0 0 140.13567412408486 433.0
38630.0 413.0 0 138.596366060163 432.0
38651.0 432.0 0 137.05705799624116 432.0
38673.0 444.0 0 135.5177499323193 431.0
38693.0 443.0 0 133.97844186839745 430.0
38715.0 447.0 0 132.43913380447563 430.0
38736.0 429.0 0 130.89982574055378 429.0
38758.0 441.0 0 129.36051767663193 428.0
38778.0 462.0 0 127.82120961271008 428.0
38800.0 394.0 0 126.28190154878824 427.0
38821.0 514.0 500 124.7425934848664 426.0
38843.0 390.0 0 123.20328542094455 425.0
38863.0 389.0 0 122.78679632714733 425.0
38885.0 389.0 0 122.37030723335012 424.0
38926.0 370.0 0 121.9538181395529 424.0
38947.0 401.0 0 121.53732904575568 423.0
38969.0 402.0 0 121.12083995195846 423.0
38990.0 444.0 0 120.70435085816125 423.0
39011.0 473.0 0 120.28786176436402 422.0
39032.0 444.0 0 119.87137267056681 422.0
39054.0 433.0 0 119.45488357676959 422.0
39075.0 469.0 0 119.03839448297238 421.0
39096.0 457.0 0 118.62190538917515 421.0
39117.0 402.0 0 118.20541629537794 421.0
39139.0 432.0 0 117.78892720158072 420.0
39160.0 490.0 0 117.3724381077835 420.0
39181.0 469.0 0 116.95594901398628 420.0
39202.0 443.0 0 116.53945992018906 419.0
39224.0 441.0 0 116.12297082639185 419.0
39244.0 455.0 0 115.70648173259463 419.0
39266.0 381.0 0 115.28999263879741 418.0
39287.0 411.0 0 114.87350354500019 418.0
39309.0 546.0 0 114.45701445120298 418.0
39329.0 298.0 0 114.04052535740576 417.0
39351.0 400.0 500 113.62403626360853 417.0
39372.0 451.0 0 113.20754716981132 417.0
39394.0 451.0 0 227.76280323450135 416.0
39435.0 314.0 0 342.31805929919136 416.0
39456.0 377.0 500 456.87331536388143 415.0
39477.0 391.0 0 571.4285714285714 415.0
39498.0 402.0 0 548.4085431729411 415.0
39520.0 421.0 0 525.3885149173108 414.0
39541.0 427.0 0 502.36848666168044 414.0
39562.0 385.0 0 479.34845840605004 413.0
39583.0 383.0 0 456.3284301504197 413.0
39605.0 389.0 0 433.30840189478937 413.0
39626.0 385.0 0 410.288373639159 412.0
39647.0 392.0 0 387.26834538352864 412.0
39668.0 389.0 0 364.2483171278983 412.0
39690.0 422.0 0 341.22828887226797 411.0
39711.0 410.0 0 318.2082606166376 411.0
39732.0 358.0 0 295.1882323610073 411.0
39753.0 352.0 0 272.1682041053769 410.0
39775.0 354.0 0 249.14817584974656 410.0
39796.0 438.0 0 226.12814759411617 410.0
39817.0 276.0 0 203.1081193384859 409.0
39838.0 316.0 500 180.0880910828555 409.0
39860.0 333.0 0 157.06806282722513 409.0
39880.0 333.0 0 260.65818997756173 408.0
39922.0 226.0 0 364.2483171278983 408.0
39943.0 294.0 500 467.8384442782349 408.0
39964.0 311.0 0 571.4285714285714 408.0
39986.0 294.0 0 693.452380952381 408.0
40007.0 355.0 500 815.4761904761905 408.0
40028.0 368.0 0 937.5 408.0
40049.0 309.0 0 861.0977948226271 408.0
40071.0 317.0 0 784.6955896452541 408.0
40092.0 326.0 0 708.2933844678811 408.0
40113.0 264.0 0 631.8911792905081 408.0
40134.0 258.0 0 555.4889741131351 408.0
40156.0 359.0 500 479.0867689357622 408.0
40177.0 327.0 0 402.6845637583893 408.0
40198.0 285.0 0 414.3106272789727 408.0
40219.0 286.0 0 425.9366907995561 408.0
40241.0 255.0 0 437.56275432013956 408.0
40262.0 243.0 0 449.18881784072295 408.0
40283.0 376.0 500 460.81488136130633 408.0
40304.0 185.0 0 472.4409448818898 408.0
40326.0 197.0 0 455.6678935843079 408.0
40347.0 259.0 0 438.89484228672603 408.0
40368.0 249.0 0 422.12179098914413 408.0
40389.0 249.0 0 405.34873969156223 407.0
40430.0 127.0 0 388.5756883939804 407.0
40452.0 200.0 500 371.8026370963985 407.0
40473.0 255.0 0 355.0295857988166 407.0
40495.0 265.0 0 344.03172341150594 407.0
40515.0 325.0 0 333.0338610241953 407.0
40537.0 218.0 0 322.0359986368847 407.0
40558.0 244.0 0 311.03813624957405 406.0
40579.0 253.0 0 300.0402738622634 406.0
40600.0 261.0 0 289.04241147495276 406.0
40622.0 268.0 0 278.0445490876421 406.0
40643.0 304.0 0 267.0466867003315 406.0
40664.0 298.0 0 256.0488243130209 406.0
40685.0 306.0 0 245.05096192571023 406.0
40707.0 268.0 0 234.05309953839958 406.0
40728.0 277.0 0 223.05523715108896 405.0
40749.0 280.0 0 212.0573747637783 405.0
40770.0 290.0 0 201.05951237646767 405.0
40792.0 297.0 0 190.06164998915705 405.0
40813.0 213.0 0 179.06378760184643 405.0
40834.0 271.0 500 168.06592521453578 405.0
40855.0 253.0 0 157.06806282722513 405.0
40877.0 253.0 0 260.65818997756173 404.0
40918.0 142.0 0 364.2483171278983 404.0
40939.0 255.0 500 467.8384442782349 404.0
40961.0 344.0 0 571.4285714285714 404.0
40981.0 311.0 0 605.0420168067227 403.0
41003.0 309.0 0 638.655462184874 403.0
41024.0 389.0 500 672.2689075630252 403.0
41045.0 340.0 0 705.8823529411765 403.0
41066.0 309.0 0 783.0882352941177 403.0
41088.0 393.0 500 860.2941176470588 402.0
41109.0 410.0 0 937.5 402.0
41129.0 347.0 0 942.4603174603175 402.0
41151.0 404.0 500 947.4206349206349 402.0
41173.0 375.0 0 952.3809523809524 402.0
41194.0 406.0 0 877.4509803921569 401.0
41214.0 326.0 0 802.5210084033613 401.0
41236.0 358.0 0 727.5910364145658 401.0
41257.0 371.0 0 652.6610644257703 401.0
41279.0 459.0 0 577.7310924369748 400.0
41299.0 247.0 0 502.80112044817923 400.0
41321.0 323.0 500 427.8711484593837 400.0
41342.0 362.0 0 352.94117647058823 400.0
41364.0 422.0 0 377.59103641456585 400.0
41384.0 422.0 0 402.2408963585434 399.0
41426.0 253.0 0 426.890756302521 398.0
41447.0 382.0 500 451.54061624649864 398.0
41468.0 382.0 0 476.1904761904762 398.0
41490.0 386.0 0 457.0230607966457 397.0
41511.0 415.0 0 437.85564540281524 397.0
41532.0 409.0 0 418.68823000898476 396.0
41553.0 445.0 0 399.5208146151542 396.0
41575.0 381.0 0 380.3533992213238 395.0
41595.0 400.0 0 361.18598382749326 395.0
41617.0 431.0 0 342.0185684336628 395.0
41638.0 450.0 0 322.8511530398323 394.0
41660.0 456.0 0 303.6837376460018 394.0
41680.0 442.0 0 284.51632225217134 393.0
41702.0 429.0 0 265.34890685834085 393.0
41723.0 438.0 0 246.18149146451032 393.0
41745.0 417.0 0 227.01407607067983 392.0
41765.0 464.0 500 207.84666067684935 392.0
41787.0 373.0 0 188.67924528301887 391.0
41808.0 390.0 0 204.3613553294478 391.0
41830.0 421.0 0 220.04346537587674 390.0
41850.0 423.0 0 235.72557542230564 390.0
41872.0 425.0 0 251.40768546873457 390.0
41893.0 425.0 0 267.0897955151635 390.0
41934.0 320.0 0 282.7719055615924 390.0
41956.0 406.0 500 298.45401560802134 391.0
41977.0 431.0 0 314.13612565445027 391.0
41998.0 409.0 0 305.77233362968815 391.0
42019.0 420.0 0 297.4085416049261 392.0
42041.0 409.0 0 289.04474958016397 392.0
42062.0 395.0 0 280.6809575554019 393.0
42083.0 404.0 0 272.3171655306398 393.0
42104.0 385.0 0 263.9533735058777 393.0
42126.0 410.0 0 255.5895814811156 394.0
42146.0 413.0 0 247.22578945635354 394.0
42168.0 409.0 0 238.86199743159142 394.0
42189.0 377.0 0 230.49820540682936 395.0
42211.0 358.0 0 222.13441338206724 395.0
42231.0 338.0 0 213.77062135730515 395.0
42253.0 329.0 0 205.40682933254305 396.0
42274.0 400.0 500 197.04303730778096 396.0
42296.0 233.0 0 188.67924528301887 396.0
42316.0 263.0 0 212.44357964241854 397.0
42338.0 284.0 0 236.2079140018182 397.0
42359.0 284.0 0 259.9722483612179 397.0
42381.0 284.0 0 283.73658272061755 398.0
42422.0 177.0 0 307.50091708001725 402.0
42443.0 248.0 500 331.26525143941694 403.0
42464.0 274.0 0 355.0295857988166 405.0
42485.0 290.0 0 343.9021835890454 407.0
42507.0 294.0 0 332.77478137927426 409.0
42528.0 274.0 0 321.6473791695031 410.0
42549.0 275.0 0 310.51997695973193 412.0
42570.0 264.0 0 299.3925747499607 414.0
42592.0 264.0 0 288.26517254018955 416.0
42613.0 265.0 0 277.1377703304184 418.0
42634.0 290.0 0 266.01036812064723 419.0
42655.0 319.0 0 254.88296591087607 421.0
42677.0 322.0 0 243.7555637011049 423.0
42697.0 291.0 0 232.6281614913337 425.0
42719.0 280.0 0 221.50075928156255 426.0
42740.0 272.0 0 210.3733570717914 428.0
42762.0 264.0 0 199.2459548620202 430.0
42782.0 344.0 500 188.11855265224904 432.0
42804.0 200.0 0 176.99115044247787 434.0
42825.0 277.0 500 786.1699938258901 435.0
42847.0 284.0 0 1395.3488372093022 437.0
42867.0 298.0 0 1211.517165005537 439.0
42889.0 298.0 0 1027.6854928017717 440.0
42930.0 216.0 0 843.8538205980066 440.0
42951.0 316.0 500 660.0221483942413 440.0
42973.0 343.0 0 476.1904761904762 440.0
42994.0 361.0 0 458.0026455026455 440.0
43015.0 387.0 0 439.81481481481484 440.0
43036.0 362.0 0 421.62698412698415 440.0
43058.0 366.0 0 403.4391534391535 440.0
43078.0 378.0 0 385.25132275132273 440.0
43100.0 407.0 0 367.06349206349205 440.0
43121.0 386.0 0 348.87566137566137 440.0
43143.0 428.0 500 330.6878306878307 440.0
43163.0 428.0 0 312.5 440.0
43185.0 409.0 0 339.15682414698165 440.0
43206.0 404.0 0 365.81364829396324 440.0
43228.0 408.0 0 392.4704724409449 440.0
43248.0 391.0 0 419.1272965879265 440.0
43270.0 485.0 500 445.78412073490813 440.0
43291.0 340.0 0 472.4409448818898 440.0
43313.0 362.0 0 455.6678935843079 440.0
43333.0 419.0 0 438.89484228672603 440.0
43355.0 410.0 0 422.12179098914413 440.0
43376.0 410.0 0 405.34873969156223 439.0
43417.0 351.0 0 388.5756883939804 438.0
43439.0 430.0 500 371.8026370963985 437.0
43459.0 432.0 0 355.0295857988166 436.0
43481.0 462.0 0 344.1797852141329 436.0
43502.0 469.0 0 333.3299846294492 435.0
43524.0 485.0 0 322.4801840447655 434.0
43544.0 432.0 0 311.6303834600818 433.0
43566.0 456.0 0 300.78058287539807 433.0
43587.0 475.0 0 289.9307822907144 432.0
43609.0 483.0 0 279.0809817060307 431.0
43629.0 495.0 0 268.231181121347 430.0
43651.0 484.0 0 257.3813805366633 430.0
43672.0 489.0 0 246.5315799519796 429.0
43694.0 468.0 0 235.6817793672959 428.0
43714.0 441.0 0 224.8319787826122 427.0
43736.0 450.0 0 213.98217819792848 426.0
43757.0 524.0 0 203.1323776132448 426.0
43779.0 398.0 0 192.2825770285611 425.0
43799.0 436.0 0 181.4327764438774 424.0
43821.0 396.0 0 170.58297585919368 423.0
43842.0 445.0 500 159.73317527451002 423.0
43864.0 452.0 0 148.8833746898263 422.0
43884.0 452.0 0 254.5196738745126 422.0
43926.0 340.0 0 360.1559730591989 422.0
43947.0 435.0 500 465.7922722438851 422.0
43968.0 428.0 0 571.4285714285714 422.0
43990.0 422.0 0 547.5918899415722 422.0
44011.0 427.0 0 523.755208454573 422.0
44032.0 414.0 0 499.9185269675737 422.0
44053.0 427.0 0 476.08184548057454 422.0
44075.0 410.0 0 452.24516399357526 422.0
44095.0 448.0 0 428.40848250657604 422.0
44117.0 430.0 0 404.5718010195768 422.0
44138.0 464.0 0 380.7351195325776 422.0
44160.0 441.0 0 356.89843804557836 422.0
44180.0 437.0 0 333.0617565585791 422.0
44201.0 388.0 0 309.22507507157985 422.0
44223.0 399.0 0 285.3883935845806 422.0
44245.0 454.0 0 261.55171209758146 422.0
44265.0 375.0 0 237.71503061058223 422.0
44286.0 322.0 0 213.87834912358295 422.0
44308.0 388.0 500 190.04166763658372 422.0
44329.0 394.0 0 166.2049861495845 422.0
44350.0 405.0 0 206.53136600900748 422.0
44371.0 384.0 0 246.85774586843047 422.0
44393.0 384.0 0 287.1841257278535 423.0
44434.0 292.0 0 327.5105055872765 423.0
44455.0 382.0 500 367.8368854466995 423.0
44477.0 432.0 0 408.16326530612247 423.0
44497.0 411.0 0 393.43876078569957 423.0
44519.0 390.0 0 378.7142562652767 423.0
44540.0 391.0 0 363.98975174485383 423.0
44562.0 365.0 0 349.26524722443094 424.0
44582.0 376.0 0 334.54074270400804 424.0
44604.0 404.0 0 319.81623818358514 424.0
44625.0 418.0 0 305.09173366316224 424.0
44646.0 416.0 0 290.36722914273935 424.0
44667.0 378.0 0 275.64272462231645 424.0
44689.0 362.0 0 260.91822010189355 424.0
44710.0 357.0 0 246.19371558147068 425.0
44731.0 322.0 0 231.46921106104782 425.0
44752.0 417.0 500 216.7447065406249 425.0
44774.0 273.0 0 202.02020202020202 425.0
44795.0 285.0 0 216.03469247448305 425.0
44816.0 319.0 0 230.04918292876408 425.0
44837.0 331.0 0 244.0636733830451 425.0
44859.0 286.0 0 258.07816383732614 425.0
44880.0 286.0 0 272.0926542916072 426.0
44921.0 187.0 0 286.1071447458882 426.0
44943.0 306.0 500 300.12163520016924 426.0
44963.0 302.0 0 314.13612565445027 426.0
44985.0 318.0 0 306.1278453948611 426.0
45006.0 293.0 0 298.11956513527196 426.0
45028.0 288.0 0 290.11128487568277 426.0
45048.0 273.0 0 282.10300461609364 426.0
45070.0 277.0 0 274.09472435650446 426.0
45091.0 291.0 0 266.08644409691533 426.0
45113.0 296.0 0 258.07816383732614 426.0
45133.0 291.0 0 250.069883577737 427.0
45155.0 259.0 0 242.06160331814783 427.0
45176.0 240.0 0 234.05332305855865 427.0
45197.0 228.0 0 226.04504279896952 427.0
45218.0 203.0 0 218.03676253938033 427.0
45240.0 284.0 500 210.02848227979118 427.0
45261.0 165.0 0 202.02020202020202 427.0
45282.0 133.0 0 452.14045214045217 427.0
45303.0 180.0 500 702.2607022607024 427.0
45325.0 198.0 0 952.3809523809524 427.0
45346.0 184.0 0 914.6795827123697 427.0
45367.0 182.0 0 876.9782130437868 427.0
45388.0 182.0 0 839.2768433752041 428.0
45429.0 182.0 0 801.5754737066213 428.0
45451.0 175.0 0 763.8741040380385 429.0
45472.0 184.0 0 726.1727343694557 429.0
45494.0 178.0 0 688.471364700873 430.0
45514.0 168.0 0 650.7699950322901 430.0
45536.0 160.0 0 613.0686253637073 430.0
45557.0 162.0 0 575.3672556951246 431.0
45579.0 166.0 0 537.6658860265418 431.0
45599.0 195.0 0 499.96451635795904 432.0
45621.0 220.0 0 462.2631466893762 432.0
45642.0 201.0 0 424.56177702079344 432.0
45664.0 171.0 0 386.8604073522107 433.0
45684.0 181.0 0 349.15903768362784 433.0
45706.0 185.0 0 311.4576680150451 433.0
45727.0 202.0 0 273.75629834646224 434.0
45748.0 169.0 0 236.0549286778795 434.0
45769.0 107.0 0 198.35355900929676 435.0
45791.0 168.0 500 160.6521893407139 435.0
45812.0 214.0 0 122.95081967213115 435.0
45833.0 240.0 0 170.48622727779636 436.0
45854.0 198.0 0 218.02163488346156 436.0
45876.0 198.0 0 265.5570424891268 437.0
45917.0 146.0 0 313.092450094792 437.0
45938.0 224.0 500 360.62785770045724 437.0
45960.0 264.0 0 408.16326530612247 437.0
45980.0 277.0 0 393.6824729891957 438.0
46002.0 279.0 0 379.20168067226894 438.0
46023.0 284.0 0 364.72088835534214 438.0
46045.0 292.0 0 350.2400960384154 438.0
46065.0 316.0 0 335.7593037214886 438.0
46087.0 346.0 0 321.27851140456187 439.0
46108.0 375.0 0 306.7977190876351 439.0
46130.0 383.0 0 292.3169267707083 439.0
46150.0 356.0 0 277.8361344537815 439.0
46172.0 349.0 0 263.35534213685474 439.0
46193.0 386.0 0 248.87454981992798 440.0
46215.0 389.0 0 234.3937575030012 440.0
46235.0 421.0 0 219.91296518607444 440.0
46257.0 312.0 0 205.43217286914765 440.0
46278.0 404.0 500 190.95138055222088 441.0
46299.0 382.0 0 176.47058823529412 441.0
46320.0 405.0 0 202.28091236494598 441.0
46342.0 434.0 0 228.09123649459784 441.0
46363.0 441.0 0 253.90156062424973 441.0
46384.0 441.0 0 279.7118847539016 441.0
46426.0 376.0 0 305.52220888355345 441.0
46446.0 457.0 500 331.3325330132053 441.0
46468.0 465.0 0 357.14285714285717 441.0
46489.0 461.0 0 444.327731092437 441.0
46511.0 461.0 0 531.5126050420168 441.0
46531.0 515.0 500 618.6974789915967 441.0
46553.0 451.0 0 705.8823529411765 441.0
46574.0 500.0 500 1050.6155950752393 441.0
46596.0 525.0 0 1395.3488372093022 441.0
46616.0 550.0 0 1275.032299741602 441.0
46638.0 546.0 0 1154.7157622739019 440.0
46659.0 472.0 0 1034.3992248062016 440.0
46681.0 492.0 0 914.0826873385013 440.0
46701.0 499.0 0 793.766149870801 440.0
46723.0 558.0 0 673.4496124031008 440.0
46744.0 414.0 0 553.1330749354005 440.0
46766.0 469.0 500 432.8165374677003 440.0
46786.0 496.0 0 312.5 440.0
46808.0 534.0 0 412.94642857142856 440.0
46829.0 469.0 0 513.3928571428571 440.0
46850.0 513.0 500 613.8392857142858 440.0
46871.0 509.0 0 714.2857142857143 440.0
46893.0 509.0 0 678.5714285714287 439.0
46934.0 420.0 0 642.8571428571429 439.0
46955.0 514.0 500 607.1428571428571 439.0
46977.0 523.0 0 571.4285714285714 439.0
46997.0 518.0 0 554.9306336707912 439.0
47019.0 496.0 0 538.4326959130109 438.0
47040.0 513.0 0 521.9347581552306 438.0
47062.0 511.0 0 505.43682039745033 438.0
47082.0 555.0 500 488.93888263967006 438.0
47104.0 515.0 0 472.4409448818898 438.0
47125.0 508.0 0 462.09223847019126 437.0
47147.0 501.0 0 451.7435320584927 437.0
47167.0 477.0 0 441.3948256467942 437.0
47189.0 482.0 0 431.0461192350956 437.0
47210.0 441.0 0 420.6974128233971 437.0
47232.0 555.0 500 410.3487064116986 437.0
47252.0 361.0 0 400.0 436.0
47273.0 412.0 500 931.7073170731708 436.0
47295.0 435.0 0 1463.4146341463415 436.0
47317.0 427.0 0 1404.9332672385124 436.0
47337.0 429.0 0 1346.4519003306834 436.0
47358.0 379.0 0 1287.9705334228543 436.0
47380.0 379.0 0 1229.489166515025 436.0
47421.0 311.0 0 1171.007799607196 436.0
47442.0 328.0 0 1112.526432699367 436.0
47463.0 369.0 0 1054.0450657915378 436.0
47484.0 349.0 0 995.5636988837088 436.0
47506.0 327.0 0 937.0823319758796 436.0
47527.0 300.0 0 878.6009650680505 436.0
47548.0 300.0 0 820.1195981602215 437.0
47569.0 309.0 0 761.6382312523923 437.0
47591.0 292.0 0 703.1568643445632 437.0
47612.0 305.0 0 644.6754974367341 437.0
47633.0 272.0 0 586.194130528905 437.0
47654.0 232.0 0 527.712763621076 437.0
47676.0 256.0 0 469.2313967132469 437.0
47697.0 179.0 0 410.7500298054176 437.0
47718.0 207.0 0 352.2686628975887 438.0
47739.0 162.0 0 293.7872959897595 438.0
47761.0 96.0 0 235.30592908193057 438.0
47780.0 144.0 500 176.8245621741014 438.0
47802.0 150.0 0 118.34319526627219 438.0
47823.0 157.0 0 118.55263273926577 438.0
47845.0 146.0 0 118.76207021225937 438.0
47865.0 155.0 0 118.97150768525296 438.0
47887.0 155.0 0 119.18094515824654 439.0
47928.0 155.0 0 119.39038263124013 439.0
47949.0 121.0 0 119.59982010423373 440.0
47971.0 148.0 0 119.80925757722731 440.0
47992.0 131.0 0 120.0186950502209 441.0
48013.0 135.0 0 120.22813252321448 441.0
48034.0 132.0 0 120.43756999620808 441.0
48056.0 149.0 0 120.64700746920167 442.0
48077.0 158.0 0 120.85644494219525 442.0
48098.0 184.0 0 121.06588241518885 443.0
48119.0 178.0 0 121.27531988818244 443.0
48141.0 183.0 0 121.48475736117602 443.0
48162.0 166.0 0 121.69419483416961 444.0
48183.0 169.0 0 121.9036323071632 444.0
48204.0 171.0 0 122.11306978015679 444.0
48226.0 285.0 0 122.32250725315038 445.0
48247.0 112.0 0 122.53194472614396 445.0
48268.0 183.0 500 122.74138219913756 446.0
48289.0 216.0 0 122.95081967213115 446.0
48311.0 237.0 0 156.1049291188005 446.0
48331.0 267.0 0 189.25903856546984 447.0
48353.0 276.0 0 222.41314801213917 447.0
48374.0 276.0 0 255.5672574588085 448.0
48415.0 248.0 0 288.7213669054779 447.0
48437.0 348.0 500 321.8754763521472 446.0
48458.0 374.0 0 355.0295857988166 446.0
48479.0 386.0 0 344.7287445128016 445.0
48500.0 391.0 0 334.42790322678667 445.0
48522.0 392.0 0 324.1270619407717 445.0
48543.0 411.0 0 313.82622065475675 444.0
48564.0 445.0 0 303.52537936874177 444.0
48585.0 470.0 0 293.2245380827268 443.0
48607.0 492.0 0 282.92369679671185 443.0
48628.0 478.0 0 272.62285551069687 442.0
48649.0 471.0 0 262.32201422468194 442.0
48670.0 463.0 0 252.02117293866695 442.0
48692.0 474.0 0 241.720331652652 441.0
48713.0 537.0 0 231.41949036663704 441.0
48734.0 448.0 0 221.11864908062208 440.0
48755.0 457.0 0 210.8178077946071 440.0
48777.0 483.0 0 200.51696650859213 439.0
48797.0 504.0 0 190.21612522257718 439.0
48819.0 506.0 0 179.91528393656222 439.0
48840.0 524.0 0 169.61444265054726 438.0
48862.0 540.0 0 159.3136013645323 438.0
48882.0 540.0 0 149.01276007851735 437.0
48924.0 471.0 0 138.7119187925024 437.0
48945.0 557.0 500 128.4110775064874 437.0
48966.0 556.0 0 118.11023622047244 437.0
48988.0 546.0 0 125.74724146103812 437.0
49009.0 519.0 0 133.3842467016038 437.0
49030.0 525.0 0 141.02125194216944 437.0
49051.0 539.0 0 148.6582571827351 437.0
49073.0 552.0 0 156.29526242330076 437.0
49094.0 553.0 0 163.93226766386644 437.0
49115.0 558.0 0 171.5692729044321 437.0
49136.0 542.0 0 179.20627814499778 437.0
49158.0 511.0 0 186.84328338556344 437.0
49179.0 495.0 0 194.4802886261291 437.0
49200.0 479.0 0 202.11729386669475 437.0
49221.0 554.0 500 209.75429910726044 437.0
49243.0 389.0 0 217.3913043478261 437.0
49264.0 443.0 500 806.3700707785642 437.0
49285.0 445.0 0 1395.3488372093022 437.0
49306.0 454.0 0 1260.4039167686658 437.0
49328.0 452.0 0 1125.4589963280293 437.0
49349.0 444.0 0 990.5140758873929 437.0
49370.0 447.0 0 855.5691554467564 437.0
49391.0 447.0 0 720.62423500612 437.0
49432.0 384.0 0 585.6793145654835 437.0
49454.0 447.0 500 450.7343941248471 437.0
49475.0 432.0 0 315.7894736842105 437.0
49497.0 422.0 0 307.03555603588023 437.0
49517.0 427.0 0 298.28163838755 437.0
49539.0 418.0 0 289.5277207392197 437.0
49560.0 420.0 0 280.77380309088943 437.0
49581.0 432.0 0 272.01988544255914 437.0
49602.0 429.0 0 263.2659677942289 437.0
49624.0 369.0 0 254.51205014589863 438.0
49645.0 343.0 0 245.75813249756834 438.0
49666.0 329.0 0 237.00421484923805 438.0
49687.0 334.0 0 228.25029720090782 438.0
49709.0 412.0 0 219.49637955257754 438.0
49730.0 225.0 0 210.74246190424728 438.0
49751.0 263.0 0 201.988544255917 438.0
49772.0 299.0 0 193.23462660758673 438.0
49794.0 284.0 0 184.48070895925648 438.0
49815.0 284.0 0 175.7267913109262 438.0
49836.0 286.0 0 166.9728736625959 438.0
49857.0 268.0 0 158.21895601426561 438.0
49879.0 268.0 0 149.46503836593536 438.0
49920.0 198.0 0 140.7111207176051 438.0
49941.0 266.0 500 131.9572030692748 437.0
49963.0 244.0 0 123.20328542094455 437.0
49983.0 231.0 0 128.83306517803436 437.0
50005.0 238.0 0 134.4628449351242 436.0
50026.0 248.0 0 140.092624692214 436.0
50046.0 257.0 0 145.72240444930384 435.0
50068.0 252.0 0 151.35218420639364 435.0
50089.0 272.0 0 156.98196396348345 435.0
50111.0 263.0 0 162.6117437205733 434.0
50131.0 247.0 0 168.2415234776631 434.0
50153.0 255.0 0 173.87130323475293 433.0
50174.0 258.0 0 179.50108299184274 433.0
50196.0 330.0 0 185.13086274893257 433.0
50216.0 187.0 0 190.76064250602238 432.0
50238.0 247.0 500 196.3904222631122 432.0
50259.0 247.0 0 202.02020202020202 432.0
50281.0 263.0 0 211.16908952611954 431.0
50301.0 245.0 0 220.31797703203705 431.0
50323.0 261.0 0 229.4668645379546 430.0
50344.0 287.0 0 238.6157520438721 430.0
50366.0 311.0 0 247.76463954978962 430.0
50386.0 311.0 0 256.91352705570716 430.0
50428.0 255.0 0 266.0624145616247 430.0
50449.0 311.0 500 275.2113020675422 430.0
50470.0 312.0 0 284.3601895734597 430.0
50492.0 305.0 0 281.919329577121 430.0
50513.0 327.0 0 279.4784695807823 430.0
50534.0 357.0 0 277.0376095844436 430.0
50555.0 373.0 0 274.5967495881049 430.0
50577.0 382.0 0 272.1558895917662 430.0
50597.0 365.0 0 269.71502959542744 430.0
50619.0 342.0 0 267.27416959908874 430.0
50640.0 353.0 0 264.83330960275003 430.0
50662.0 353.0 0 262.39244960641133 430.0
50682.0 421.0 500 259.95158961007263 430.0
50704.0 242.0 0 257.51072961373393 430.0
50725.0 315.0 500 826.4297834115181 430.0
50747.0 335.0 0 1395.3488372093022 430.0
50767.0 326.0 0 1271.905654138653 430.0
50789.0 314.0 0 1148.4624710680039 430.0
50810.0 338.0 0 1025.0192879973547 430.0
50831.0 358.0 0 901.5761049267056 430.0
50852.0 343.0 0 778.1329218560564 430.0
50874.0 343.0 0 654.6897387854074 430.0
50915.0 248.0 0 531.2465557147581 429.0
50936.0 291.0 500 407.803372644109 429.0
50958.0 307.0 0 284.3601895734597 429.0
50978.0 341.0 0 339.63768436904815 428.0
51000.0 337.0 0 394.9151791646366 428.0
51021.0 320.0 0 450.19267396022497 428.0
51043.0 375.0 500 505.47016875581346 428.0
51063.0 355.0 0 560.7476635514018 428.0
51085.0 337.0 0 537.9075675297737 427.0
51106.0 316.0 0 515.0674715081454 427.0
51128.0 321.0 0 492.2273754865173 427.0
51148.0 326.0 0 469.38727946488916 427.0
51170.0 394.0 0 446.547183443261 427.0
51191.0 245.0 0 423.7070874216328 426.0
51212.0 277.0 0 400.8669914000046 426.0
51233.0 334.0 0 378.0268953783765 426.0
51255.0 291.0 0 355.18679935674834 426.0
51276.0 306.0 0 332.34670333512014 425.0
51297.0 301.0 0 309.50660731349194 425.0
51318.0 332.0 0 286.6665112918638 425.0
51340.0 314.0 0 263.82641527023566 425.0
51361.0 332.0 0 240.98631924860746 425.0
51382.0 332.0 0 218.14622322697926 424.0
51424.0 245.0 0 195.30612720535112 423.0
51444.0 301.0 500 172.46603118372298 423.0
51466.0 314.0 0 149.62593516209478 422.0
51487.0 345.0 0 154.7782861646218 422.0
51509.0 332.0 0 159.9306371671488 422.0
51529.0 356.0 0 165.0829881696758 421.0
51551.0 401.0 0 170.2353391722028 421.0
51572.0 400.0 0 175.3876901747298 420.0
51594.0 312.0 0 180.54004117725682 420.0
51614.0 324.0 0 185.6923921797838 419.0
51636.0 327.0 0 190.84474318231082 419.0
51657.0 361.0 0 195.99709418483783 418.0
51679.0 314.0 0 201.14944518736485 418.0
51699.0 246.0 0 206.30179618989183 417.0
51721.0 309.0 500 211.45414719241884 417.0
51742.0 346.0 0 216.60649819494586 416.0
51764.0 320.0 0 220.80791734096852 416.0
51784.0 334.0 0 225.00933648699117 415.0
51806.0 343.0 0 229.21075563301383 415.0
51827.0 354.0 0 233.4121747790365 415.0
51848.0 380.0 0 237.61359392505915 414.0
51869.0 384.0 0 241.8150130710818 414.0
51891.0 384.0 0 246.01643221710447 414.0
51932.0 278.0 0 250.21785136312712 414.0
51953.0 339.0 500 254.41927050914978 414.0
51975.0 349.0 0 258.62068965517244 414.0
51995.0 339.0 0 261.06050748210805 414.0
52017.0 359.0 0 263.5003253090436 414.0
52038.0 348.0 0 265.9401431359792 414.0
52060.0 376.0 0 268.37996096291477 414.0
52080.0 360.0 0 270.8197787898504 414.0
52102.0 368.0 0 273.259596616786 414.0
52123.0 313.0 0 275.69941444372154 414.0
52144.0 313.0 0 278.13923227065715 414.0
52165.0 362.0 500 280.5790500975927 414.0
52187.0 321.0 0 283.0188679245283 414.0
52208.0 272.0 0 501.1792452830189 414.0
52229.0 313.0 500 719.3396226415094 414.0
52250.0 316.0 0 937.5 414.0
52272.0 338.0 0 864.7798742138365 414.0
52293.0 357.0 0 792.059748427673 414.0
52314.0 322.0 0 719.3396226415094 414.0
52335.0 345.0 0 646.6194968553459 414.0
52357.0 372.0 0 573.8993710691824 414.0
52378.0 372.0 0 501.1792452830189 414.0
52419.0 290.0 0 428.45911949685535 414.0
52441.0 333.0 500 355.73899371069183 414.0
52461.0 329.0 0 283.0188679245283 415.0
52483.0 344.0 0 278.0314025597045 415.0
52504.0 351.0 0 273.0439371948806 415.0
52525.0 387.0 0 268.05647183005675 416.0
52546.0 376.0 0 263.06900646523286 416.0
52568.0 394.0 0 258.081541100409 416.0
52589.0 379.0 0 253.09407573558516 417.0
52610.0 346.0 0 248.10661037076133 417.0
52631.0 336.0 0 243.11914500593747 417.0
52653.0 345.0 0 238.1316796411136 417.0
52674.0 442.0 0 233.14421427628974 418.0
52695.0 246.0 0 228.1567489114659 418.0
52716.0 322.0 500 223.16928354664205 418.0
52738.0 338.0 0 218.1818181818182 419.0
52759.0 351.0 0 222.11470932500976 419.0
52780.0 356.0 0 226.04760046820132 419.0
52801.0 362.0 0 229.98049161139292 419.0
52823.0 357.0 0 233.9133827545845 420.0
52844.0 375.0 0 237.84627389777606 420.0
52865.0 408.0 0 241.77916504096763 420.0
52886.0 408.0 0 245.7120561841592 420.0
52927.0 283.0 0 249.6449473273508 419.0
52949.0 394.0 500 253.57783847054236 419.0
52970.0 379.0 0 257.51072961373393 419.0
52992.0 357.0 0 489.13413720280676 418.0
53012.0 399.0 500 720.7575447918796 418.0
53033.0 396.0 0 952.3809523809524 417.0
53055.0 434.0 0 875.1123090745732 417.0
53077.0 383.0 0 797.8436657681941 416.0
53097.0 367.0 0 720.5750224618149 416.0
53118.0 408.0 500 643.3063791554357 416.0
53140.0 381.0 0 566.0377358490566 415.0
53160.0 425.0 500 997.3045822102426 415.0
53182.0 351.0 0 1428.5714285714287 414.0
53203.0 304.0 0 1260.0732600732601 414.0
53225.0 377.0 500 1091.5750915750916 413.0
53245.0 417.0 0 923.0769230769231 413.0
53267.0 379.0 0 856.631299734748 413.0
53288.0 344.0 0 790.185676392573 412.0
53310.0 371.0 0 723.7400530503979 412.0
53330.0 398.0 0 657.2944297082229 411.0
53352.0 391.0 0 590.8488063660477 411.0
53373.0 419.0 0 524.4031830238728 411.0
53395.0 419.0 0 457.95755968169766 410.0
53436.0 283.0 0 391.51193633952255 410.0
53457.0 365.0 500 325.0663129973475 410.0
53478.0 393.0 0 258.62068965517244 410.0
53499.0 380.0 0 256.75400488732015 410.0
53521.0 405.0 0 254.88732011946786 409.0
53542.0 441.0 0 253.02063535161557 409.0
53563.0 404.0 0 251.15395058376325 409.0
53584.0 372.0 0 249.28726581591096 409.0
53606.0 373.0 0 247.42058104805866 409.0
53627.0 364.0 0 245.55389628020637 408.0
53648.0 401.0 0 243.68721151235408 408.0
53669.0 357.0 0 241.82052674450176 408.0
53691.0 288.0 0 239.95384197664947 408.0
53711.0 340.0 500 238.08715720879718 408.0
53733.0 371.0 0 236.2204724409449 408.0
53754.0 372.0 0 238.34949815822378 407.0
53776.0 330.0 0 240.4785238755027 407.0
53796.0 344.0 0 242.6075495927816 407.0
53818.0 373.0 0 244.73657531006052 407.0
53839.0 387.0 0 246.8656010273394 407.0
53861.0 348.0 0 248.9946267446183 407.0
53881.0 348.0 0 251.12365246189722 406.0
53923.0 238.0 0 253.25267817917612 406.0
53944.0 297.0 500 255.38170389645504 406.0
53965.0 320.0 0 257.51072961373393 405.0
53987.0 364.0 0 263.8024402849246 405.0
54008.0 326.0 0 270.09415095611536 405.0
54029.0 342.0 0 276.38586162730604 405.0
54050.0 386.0 0 282.6775722984967 404.0
54072.0 332.0 0 288.96928296968747 404.0
54093.0 344.0 0 295.26099364087816 404.0
54114.0 303.0 0 301.55270431206884 404.0
54135.0 354.0 500 307.8444149832596 403.0
54157.0 432.0 0 314.13612565445027 403.0
54178.0 196.0 0 521.9240837696335 403.0
54199.0 269.0 500 729.7120418848167 403.0
54220.0 305.0 0 937.5 402.0
54242.0 342.0 0 873.7473156764495 402.0
54262.0 305.0 0 809.9946313528991 402.0
54284.0 301.0 0 746.2419470293486 402.0
54305.0 309.0 0 682.4892627057982 401.0
54327.0 365.0 0 618.7365783822477 401.0
54347.0 352.0 0 554.9838940586972 401.0
54369.0 305.0 0 491.2312097351467 401.0
54390.0 305.0 0 427.47852541159625 401.0
54431.0 212.0 0 363.72584108804574 402.0
54453.0 267.0 500 299.97315676449534 403.0
54474.0 298.0 0 236.2204724409449 403.0
54495.0 328.0 0 236.14327620812105 404.0
54516.0 322.0 0 236.0660799752972 405.0
54538.0 328.0 0 235.98888374247338 405.0
54559.0 323.0 0 235.91168750964954 406.0
54580.0 320.0 0 235.8344912768257 407.0
54601.0 278.0 0 235.75729504400186 407.0
54623.0 288.0 0 235.680098811178 408.0
54644.0 366.0 0 235.60290257835416 409.0
54665.0 252.0 0 235.52570634553032 409.0
54686.0 226.0 0 235.4485101127065 410.0
54708.0 274.0 500 235.37131387988265 410.0
54728.0 318.0 0 235.2941176470588 411.0
54750.0 282.0 0 237.62677484787017 412.0
54771.0 296.0 0 239.95943204868155 412.0
54793.0 304.0 0 242.2920892494929 413.0
54813.0 306.0 0 244.62474645030426 414.0
54835.0 343.0 0 246.9574036511156 414.0
54856.0 359.0 0 249.290060851927 415.0
54878.0 359.0 0 251.62271805273835 416.0
54919.0 245.0 0 253.9553752535497 416.0
54940.0 296.0 500 256.2880324543611 416.0
54961.0 313.0 0 258.62068965517244 417.0
54982.0 335.0 0 261.06050748210805 417.0
55004.0 370.0 0 263.5003253090436 417.0
55025.0 410.0 0 265.9401431359792 417.0
55046.0 386.0 0 268.37996096291477 418.0
55067.0 374.0 0 270.8197787898504 418.0
55089.0 355.0 0 273.259596616786 418.0
55110.0 380.0 0 275.69941444372154 418.0
55131.0 346.0 0 278.13923227065715 419.0
55152.0 437.0 500 280.5790500975927 419.0
55174.0 272.0 0 283.0188679245283 419.0
55195.0 370.0 500 839.1838525669153 419.0
55216.0 365.0 0 1395.3488372093022 420.0
55237.0 370.0 0 1290.0584111173318 420.0
55259.0 378.0 0 1184.7679850253617 420.0
55279.0 397.0 0 1079.4775589333913 420.0
55301.0 381.0 0 974.1871328414209 421.0
55322.0 408.0 0 868.8967067494506 421.0
55344.0 426.0 0 763.6062806574803 421.0
55364.0 418.0 0 658.3158545655099 421.0
55386.0 418.0 0 553.0254284735395 421.0
55427.0 315.0 0 447.7350023815691 421.0
55448.0 389.0 500 342.4445762895989 421.0
55470.0 403.0 0 237.15415019762847 420.0
55491.0 431.0 0 245.52591128678085 420.0
55512.0 455.0 0 253.89767237593324 420.0
55533.0 446.0 0 262.2694334650856 420.0
55555.0 433.0 0 270.64119455423804 419.0
55576.0 414.0 0 279.01295564339046 419.0
55597.0 402.0 0 287.3847167325428 419.0
55618.0 396.0 0 295.7564778216952 419.0
55640.0 486.0 500 304.1282389108476 418.0
55661.0 331.0 0 312.5 418.0
55682.0 356.0 0 303.69817485353764 418.0
55703.0 387.0 0 294.8963497070753 418.0
55725.0 394.0 0 286.0945245606129 417.0
55746.0 395.0 0 277.29269941415055 417.0
55767.0 406.0 0 268.4908742676881 417.0
55788.0 381.0 0 259.68904912122576 417.0
55810.0 397.0 0 250.8872239747634 416.0
55830.0 421.0 0 242.08539882830104 416.0
55852.0 424.0 0 233.28357368183865 416.0
55873.0 419.0 0 224.48174853537628 416.0
55895.0 419.0 0 215.67992338891392 416.0
55936.0 288.0 0 206.87809824245156 416.0
55957.0 353.0 500 198.07627309598917 416.0
55977.0 378.0 0 189.2744479495268 416.0
55999.0 404.0 0 195.47774628263653 416.0
56021.0 422.0 0 201.6810446157463 416.0
56042.0 406.0 0 207.88434294885602 417.0
56062.0 385.0 0 214.08764128196577 417.0
56084.0 359.0 0 220.2909396150755 417.0
56105.0 361.0 0 226.49423794818523 417.0
56127.0 401.0 0 232.69753628129496 417.0
56147.0 357.0 0 238.90083461440472 417.0
56169.0 278.0 0 245.10413294751447 417.0
56190.0 361.0 500 251.3074312806242 417.0
56212.0 379.0 0 257.51072961373393 418.0
56232.0 368.0 0 255.66013148499707 418.0
56254.0 370.0 0 253.8095333562602 418.0
56275.0 377.0 0 251.95893522752334 418.0
56296.0 398.0 0 250.10833709878648 418.0
56317.0 417.0 0 248.25773897004962 418.0
56339.0 390.0 0 246.40714084131278 418.0
56360.0 403.0 0 244.55654271257592 418.0
56381.0 403.0 0 242.70594458383906 419.0
56423.0 291.0 0 240.8553464551022 420.0
56443.0 363.0 500 239.00474832636533 420.0
56465.0 386.0 0 237.15415019762847 421.0
56486.0 417.0 0 245.52591128678085 421.0
56508.0 411.0 0 253.89767237593324 422.0
56528.0 419.0 0 262.2694334650856 422.0
56550.0 397.0 0 270.64119455423804 423.0
56571.0 379.0 0 279.01295564339046 423.0
56593.0 378.0 0 287.3847167325428 424.0
56613.0 357.0 0 295.7564778216952 424.0
56635.0 464.0 500 304.1282389108476 425.0
56656.0 277.0 0 312.5 425.0
56678.0 369.0 500 853.9244186046511 426.0
56698.0 352.0 0 1395.3488372093022 426.0
56720.0 356.0 0 1297.317942624342 427.0
56741.0 381.0 0 1199.2870480393822 427.0
56763.0 379.0 0 1101.256153454422 428.0
56783.0 385.0 0 1003.2252588694619 428.0
56805.0 384.0 0 905.1943642845017 429.0
56826.0 397.0 0 807.1634696995417 429.0
56848.0 409.0 0 709.1325751145815 430.0
56868.0 402.0 0 611.1016805296215 430.0
56890.0 402.0 0 513.0707859446613 430.0
56931.0 285.0 0 415.0398913597013 430.0
56952.0 338.0 500 317.00899677474126 430.0
56974.0 378.0 0 218.97810218978103 430.0
56994.0 414.0 0 235.72348647488192 430.0
57016.0 417.0 0 252.46887075998282 430.0
57037.0 391.0 0 269.21425504508375 430.0
57059.0 382.0 0 285.95963933018464 430.0
57079.0 369.0 0 302.70502361528554 430.0
57101.0 355.0 0 319.45040790038644 430.0
57122.0 410.0 500 336.19579218548733 430.0
57144.0 365.0 0 352.94117647058823 429.0
57164.0 302.0 0 341.20818138576186 429.0
57186.0 338.0 0 329.4751863009355 429.0
57207.0 356.0 0 317.74219121610906 429.0
57229.0 375.0 0 306.0091961312827 429.0
57249.0 365.0 0 294.2762010464563 429.0
57271.0 358.0 0 282.54320596162995 429.0
57292.0 386.0 0 270.8102108768036 429.0
57314.0 393.0 0 259.0772157919772 429.0
57334.0 397.0 0 247.34422070715078 429.0
57356.0 411.0 0 235.6112256223244 429.0
57377.0 411.0 0 223.878230537498 429.0
57418.0 262.0 0 212.14523545267164 429.0
57440.0 340.0 500 200.41224036784524 429.0
57461.0 361.0 0 188.67924528301887 429.0
57482.0 390.0 0 202.8026039942624 429.0
57503.0 406.0 0 216.9259627055059 430.0
57525.0 408.0 0 231.04932141674942 430.0
57545.0 375.0 0 245.17268012799292 430.0
57567.0 357.0 0 259.2960388392365 430.0
57588.0 343.0 0 273.41939755047997 430.0
57610.0 342.0 0 287.54275626172347 430.0
57630.0 457.0 500 301.66611497296697 431.0
57652.0 258.0 0 315.7894736842105 431.0
57673.0 305.0 500 855.5691554467563 431.0
57695.0 350.0 0 1395.3488372093022 431.0
57715.0 359.0 0 1297.2515856236787 431.0
57737.0 372.0 0 1199.154334038055 431.0
57758.0 349.0 0 1101.0570824524311 432.0
57780.0 364.0 0 1002.9598308668076 432.0
57800.0 388.0 0 904.8625792811839 432.0
57822.0 394.0 0 806.7653276955602 432.0
57843.0 384.0 0 708.6680761099366 432.0
57865.0 388.0 0 610.5708245243129 432.0
57885.0 388.0 0 512.4735729386892 433.0
57927.0 256.0 0 414.3763213530656 434.0
57948.0 326.0 500 316.279069767442 434.0
57969.0 350.0 0 218.1818181818182 435.0
57991.0 395.0 0 221.7571737665378 435.0
58012.0 397.0 0 225.33252935125742 435.0
58033.0 357.0 0 228.90788493597702 436.0
58054.0 330.0 0 232.48324052069663 436.0
58076.0 362.0 0 236.05859610541626 437.0
58096.0 338.0 0 239.63395169013586 437.0
58118.0 368.0 0 243.20930727485546 438.0
58139.0 323.0 0 246.7846628595751 438.0
58161.0 259.0 0 250.3600184442947 439.0
58181.0 299.0 500 253.93537402901433 439.0
58203.0 334.0 0 257.51072961373393 440.0
58224.0 337.0 0 254.16744417490827 440.0
58246.0 328.0 0 250.8241587360826 441.0
58266.0 305.0 0 247.48087329725698 441.0
58288.0 335.0 0 244.13758785843132 442.0
58309.0 358.0 0 240.79430241960566 442.0
58331.0 325.0 0 237.45101698078003 443.0
58351.0 346.0 0 234.10773154195437 443.0
58373.0 320.0 0 230.7644461031287 443.0
58394.0 320.0 0 227.42116066430304 444.0
58435.0 211.0 0 224.07787522547738 444.0
58457.0 296.0 500 220.73458978665175 444.0
58478.0 298.0 0 217.3913043478261 444.0
58499.0 346.0 0 223.95406070549632 444.0
58520.0 368.0 0 230.51681706316654 444.0
58542.0 330.0 0 237.07957342083677 444.0
58563.0 296.0 0 243.642329778507 445.0
58584.0 293.0 0 250.20508613617721 445.0
58605.0 302.0 0 256.7678424938474 445.0
58627.0 409.0 0 263.33059885151766 445.0
58647.0 205.0 0 269.89335520918786 445.0
58669.0 285.0 500 276.4561115668581 445.0
58690.0 299.0 0 283.0188679245283 445.0
58712.0 304.0 0 277.6157804459691 446.0
58732.0 329.0 0 272.21269296740996 446.0
58754.0 314.0 0 266.80960548885076 446.0
58775.0 320.0 0 261.4065180102916 446.0
58797.0 330.0 0 256.0034305317324 446.0
58817.0 360.0 0 250.60034305317325 446.0
58839.0 385.0 0 245.19725557461408 446.0
58860.0 334.0 0 239.7941680960549 446.0
58882.0 334.0 0 234.39108061749573 446.0
58923.0 219.0 0 228.98799313893653 446.0
58944.0 312.0 500 223.58490566037736 446.0
58965.0 321.0 0 218.1818181818182 446.0
58986.0 352.0 0 221.7571737665378 445.0
59008.0 391.0 0 225.33252935125742 445.0
59029.0 387.0 0 228.90788493597702 445.0
59049.0 351.0 0 232.48324052069663 445.0
59071.0 338.0 0 236.05859610541626 445.0
59093.0 331.0 0 239.63395169013586 444.0
59114.0 365.0 0 243.20930727485546 444.0
59134.0 319.0 0 246.7846628595751 444.0
59156.0 253.0 0 250.3600184442947 444.0
59177.0 313.0 500 253.93537402901433 443.0
59198.0 331.0 0 257.51072961373393 443.0
59219.0 346.0 0 254.23332032774096 443.0
59241.0 327.0 0 250.95591104174798 443.0
59262.0 348.0 0 247.678501755755 443.0
59283.0 344.0 0 244.401092469762 442.0
59304.0 368.0 0 241.12368318376903 442.0
59326.0 379.0 0 237.84627389777606 442.0
59347.0 381.0 0 234.56886461178308 442.0
59368.0 373.0 0 231.2914553257901 442.0
59389.0 373.0 0 228.0140460397971 442.0
59430.0 272.0 0 224.73663675380413 442.0
59452.0 323.0 500 221.45922746781116 442.0
59473.0 358.0 0 218.1818181818182 442.0
59495.0 386.0 0 235.02673796791444 442.0
59515.0 410.0 0 251.8716577540107 442.0
59537.0 379.0 0 268.716577540107 442.0
59558.0 348.0 0 285.5614973262032 442.0
59580.0 351.0 0 302.40641711229944 442.0
59600.0 340.0 0 319.2513368983957 442.0
59622.0 438.0 500 336.096256684492 442.0
59643.0 271.0 0 352.94117647058823 443.0
59665.0 319.0 500 874.1450068399452 443.0
59685.0 341.0 0 1395.3488372093022 443.0
59707.0 360.0 0 1297.317942624342 443.0
59728.0 388.0 0 1199.2870480393822 443.0
59750.0 352.0 0 1101.256153454422 443.0
59770.0 383.0 0 1003.2252588694619 443.0
59792.0 395.0 0 905.1943642845017 443.0
59813.0 403.0 0 807.1634696995417 443.0
59834.0 405.0 0 709.1325751145815 443.0
59855.0 407.0 0 611.1016805296215 443.0
59877.0 407.0 0 513.0707859446613 444.0
59918.0 274.0 0 415.0398913597013 444.0
59939.0 421.0 500 317.00899677474126 444.0
59961.0 338.0 0 218.97810218978103 444.0
59981.0 409.0 500 823.7747653806048 444.0
60003.0 432.0 0 1428.5714285714287 444.0
60024.0 412.0 0 1247.8991596638657 444.0
60046.0 369.0 0 1067.2268907563025 444.0
60066.0 418.0 500 886.5546218487395 444.0
60088.0 360.0 0 705.8823529411765 444.0
60109.0 409.0 500 1050.6155950752393 444.0
60131.0 360.0 0 1395.3488372093022 445.0
60151.0 279.0 0 1242.7325581395348 445.0
60173.0 343.0 500 1090.1162790697674 445.0
60194.0 375.0 0 937.5 445.0
60216.0 376.0 0 877.6231751824818 445.0
60236.0 329.0 0 817.7463503649635 445.0
60258.0 355.0 0 757.8695255474453 445.0
60279.0 375.0 0 697.992700729927 445.0
60301.0 420.0 0 638.1158759124087 445.0
60321.0 358.0 0 578.2390510948906 445.0
60343.0 376.0 0 518.3622262773722 445.0
60364.0 373.0 0 458.485401459854 445.0
60385.0 373.0 0 398.6085766423357 446.0
60427.0 219.0 0 338.7317518248175 446.0
60447.0 369.0 500 278.85492700729924 447.0
60469.0 335.0 0 218.97810218978103 447.0
60490.0 371.0 0 216.87956204379563 447.0
60512.0 396.0 0 214.78102189781023 448.0
60532.0 418.0 0 212.6824817518248 448.0
60554.0 329.0 0 210.5839416058394 448.0
60575.0 335.0 0 208.48540145985402 449.0
60597.0 339.0 0 206.38686131386862 449.0
60617.0 436.0 0 204.28832116788323 449.0
60639.0 280.0 0 202.1897810218978 450.0
60660.0 308.0 0 200.0912408759124 450.0
60682.0 330.0 0 197.992700729927 450.0
60702.0 368.0 0 195.8941605839416 451.0
60724.0 368.0 0 193.7956204379562 451.0
60745.0 308.0 0 191.6970802919708 451.0
60767.0 349.0 500 189.5985401459854 452.0
60787.0 377.0 0 187.5 452.0
60809.0 413.0 0 203.7450396825397 452.0
60830.0 388.0 0 219.99007936507937 453.0
60852.0 360.0 0 236.23511904761904 453.0
60872.0 357.0 0 252.48015873015873 453.0
60894.0 357.0 0 268.72519841269843 453.0
60935.0 237.0 0 284.9702380952381 452.0
60956.0 336.0 500 301.21527777777777 452.0
60978.0 375.0 0 317.46031746031747 451.0
60998.0 388.0 0 329.63520978861345 451.0
61020.0 347.0 0 341.81010211690943 450.0
61041.0 344.0 0 353.9849944452054 450.0
61063.0 335.0 0 366.15988677350134 449.0
61083.0 332.0 0 378.3347791017973 449.0
61105.0 415.0 500 390.5096714300933 448.0
61126.0 232.0 0 402.6845637583893 448.0
61148.0 272.0 500 899.0167004838459 448.0
61168.0 301.0 0 1395.3488372093022 447.0
61190.0 306.0 0 1303.6068268626407 447.0
61211.0 311.0 0 1211.8648165159793 446.0
61233.0 288.0 0 1120.1228061693178 446.0
61253.0 296.0 0 1028.3807958226562 445.0
61275.0 320.0 0 936.6387854759947 445.0
61296.0 311.0 0 844.8967751293332 444.0
61318.0 313.0 0 753.1547647826718 444.0
61338.0 307.0 0 661.4127544360102 443.0
61360.0 299.0 0 569.6707440893488 443.0
61381.0 299.0 0 477.9287337426872 443.0
61422.0 124.0 0 386.18672339602574 443.0
61444.0 224.0 500 294.44471304936405 443.0
61465.0 266.0 0 202.7027027027027 443.0
61486.0 293.0 0 210.73431922488527 443.0
61507.0 273.0 0 218.76593574706783 443.0
61529.0 257.0 0 226.7975522692504 443.0
61550.0 228.0 0 234.82916879143295 443.0
61571.0 213.0 0 242.8607853136155 443.0
61592.0 239.0 0 250.89240183579807 443.0
61614.0 254.0 0 258.92401835798063 443.0
61634.0 147.0 0 266.9556348801632 444.0
61656.0 210.0 500 274.98725140234575 444.0
61677.0 222.0 0 283.0188679245283 444.0
61699.0 250.0 0 276.8407013690033 444.0
61719.0 231.0 0 270.6625348134782 444.0
61741.0 240.0 0 264.4843682579532 444.0
61762.0 261.0 0 258.3062017024281 444.0
61784.0 285.0 0 252.12803514690307 444.0
61804.0 286.0 0 245.94986859137802 444.0
61826.0 316.0 0 239.771702035853 444.0
61847.0 299.0 0 233.59353548032794 444.0
61869.0 303.0 0 227.4153689248029 444.0
61889.0 303.0 0 221.23720236927784 444.0
61931.0 214.0 0 215.0590358137528 444.0
61952.0 324.0 500 208.88086925822773 444.0
61973.0 376.0 0 202.7027027027027 444.0
61995.0 389.0 0 215.08419414178576 444.0
62016.0 365.0 0 227.46568558086884 444.0
62037.0 362.0 0 239.84717701995189 444.0
62058.0 374.0 0 252.22866845903496 444.0
62080.0 377.0 0 264.610159898118 444.0
62101.0 449.0 0 276.99165133720106 444.0
62121.0 335.0 0 289.3731427762841 444.0
62143.0 388.0 500 301.7546342153672 444.0
62165.0 412.0 0 314.13612565445027 444.0
62185.0 445.0 0 305.5643238889312 444.0
62206.0 447.0 0 296.9925221234122 444.0
62228.0 460.0 0 288.4207203578931 444.0
62249.0 460.0 0 279.8489185923741 444.0
62270.0 484.0 0 271.27711682685504 444.0
62291.0 499.0 0 262.705315061336 444.0
62313.0 505.0 0 254.13351329581695 444.0
62334.0 491.0 0 245.56171153029794 444.0
62355.0 481.0 0 236.98990976477887 444.0
62376.0 481.0 0 228.41810799925983 444.0
62417.0 417.0 0 219.8463062337408 443.0
62439.0 499.0 500 211.27450446822175 442.0
62460.0 517.0 0 202.7027027027027 442.0
62482.0 548.0 0 215.08419414178576 441.0
62502.0 534.0 0 227.46568558086884 441.0
62524.0 514.0 0 239.84717701995189 440.0
62545.0 523.0 0 252.22866845903496 440.0
62567.0 522.0 0 264.610159898118 439.0
62587.0 559.0 0 276.99165133720106 439.0
62609.0 436.0 0 289.3731427762841 438.0
62630.0 498.0 500 301.7546342153672 438.0
62652.0 516.0 0 314.13612565445027 437.0
62672.0 553.0 0 305.17491991363374 437.0
62694.0 514.0 0 296.2137141728172 437.0
62715.0 539.0 0 287.2525084320007 436.0
62736.0 528.0 0 278.29130269118417 436.0
62757.0 555.0 0 269.33009695036765 435.0
62779.0 552.0 0 260.3688912095511 435.0
62800.0 551.0 0 251.40768546873457 434.0
62821.0 558.0 0 242.44647972791805 434.0
62842.0 559.0 0 233.4852739871015 433.0
62864.0 522.0 0 224.52406824628497 433.0
62885.0 522.0 0 215.56286250546844 432.0
62926.0 457.0 0 206.60165676465192 432.0
62948.0 544.0 500 197.6404510238354 431.0
62968.0 536.0 0 188.67924528301887 431.0
62990.0 532.0 0 235.97286188283067 431.0
63011.0 518.0 0 283.26647848264247 430.0
63033.0 508.0 0 330.5600950824543 430.0
63053.0 504.0 0 377.8537116822661 430.0
63075.0 560.0 500 425.147328282078 429.0
63096.0 388.0 0 472.4409448818898 429.0
63118.0 457.0 500 933.8948910455961 429.0
63138.0 469.0 0 1395.3488372093022 428.0
63160.0 466.0 0 1314.159900921976 428.0
63181.0 478.0 0 1232.9709646346498 428.0
63203.0 473.0 0 1151.7820283473234 427.0
63223.0 487.0 0 1070.5930920599972 427.0
63245.0 465.0 0 989.404155772671 427.0
63266.0 478.0 0 908.2152194853447 426.0
63288.0 499.0 0 827.0262831980184 426.0
63308.0 455.0 0 745.8373469106922 426.0
63330.0 443.0 0 664.648410623366 425.0
63351.0 428.0 0 583.4594743360396 425.0
63372.0 422.0 0 502.27053804871343 425.0
63393.0 422.0 0 421.0816017613871 424.0
63434.0 288.0 0 339.8926654740608 424.0
63456.0 436.0 500 258.70372918673456 424.0
63477.0 404.0 0 177.5147928994083 424.0
63499.0 383.0 0 199.44309084580578 424.0
63519.0 377.0 0 221.37138879220328 424.0
63541.0 369.0 0 243.29968673860077 424.0
63562.0 386.0 0 265.22798468499826 424.0
63584.0 321.0 0 287.15628263139575 424.0
63604.0 275.0 0 309.08458057779325 424.0
63626.0 335.0 500 331.01287852419074 424.0
63647.0 334.0 0 352.94117647058823 423.0
63669.0 326.0 0 347.89480934738003 423.0
63689.0 313.0 0 342.8484422241718 423.0
63711.0 326.0 0 337.8020751009636 423.0
63732.0 311.0 0 332.7557079777554 423.0
63754.0 323.0 0 327.7093408545472 423.0
63774.0 323.0 0 322.662973731339 423.0
63796.0 326.0 0 317.6166066081307 423.0
63817.0 292.0 0 312.5702394849225 423.0
63839.0 271.0 0 307.5238723617143 423.0
63859.0 268.0 0 302.4775052385061 423.0
63881.0 268.0 0 297.43113811529787 422.0
63922.0 268.0 0 292.38477099208967 422.0
63943.0 217.0 0 287.33840386888147 422.0
63965.0 219.0 0 282.2920367456733 422.0
63985.0 211.0 0 277.245669622465 422.0
64007.0 187.0 0 272.1993024992568 422.0
64028.0 189.0 0 267.1529353760486 422.0
64050.0 209.0 0 262.10656825284036 422.0
64070.0 145.0 0 257.06020112963216 422.0
64092.0 92.0 0 252.01383400642396 422.0
64112.0 131.0 0 246.96746688321576 422.0
64134.0 127.0 0 241.92109976000754 422.0
64154.0 129.0 0 236.87473263679934 422.0
64176.0 119.0 0 231.8283655135911 422.0
64197.0 114.0 0 226.7819983903829 422.0
64219.0 103.0 0 221.73563126717468 422.0
64239.0 105.0 0 216.68926414396648 422.0
64261.0 106.0 0 211.64289702075826 422.0
64282.0 101.0 0 206.59652989755006 422.0
64304.0 83.0 0 201.55016277434183 422.0
64323.0 83.0 0 196.50379565113363 422.0
64344.0 83.0 0 191.4574285279254 422.0
64364.0 83.0 0 186.41106140471717 422.0
64384.0 83.0 0 181.364694281509 422.0
64424.0 83.0 0 176.31832715830078 422.0
64444.0 83.0 0 171.27196003509255 423.0
64464.0 83.0 0 166.22559291188435 423.0
64485.0 83.0 0 161.17922578867612 423.0
64504.0 83.0 0 156.1328586654679 424.0
64525.0 83.0 0 151.08649154225972 424.0
64545.0 83.0 0 146.0401244190515 425.0
64565.0 83.0 0 140.99375729584327 425.0
64585.0 83.0 0 135.94739017263507 425.0
64606.0 83.0 0 130.90102304942684 426.0
64625.0 83.0 0 125.85465592621861 426.0
64646.0 83.0 0 120.80828880301044 426.0
64666.0 83.0 0 115.76192167980221 427.0
64686.0 83.0 0 110.71555455659401 427.0
64706.0 83.0 0 105.66918743338579 427.0
64727.0 64.0 0 100.62282031017756 428.0
64746.0 86.0 0 95.57645318696933 428.0
64766.0 111.0 0 90.53008606376113 429.0
64788.0 128.0 0 85.48371894055293 429.0
64809.0 101.0 0 80.43735181734473 429.0
64830.0 115.0 0 75.39098469413648 430.0
64851.0 127.0 0 70.34461757092828 430.0
64873.0 165.0 0 65.29825044772008 430.0
64894.0 165.0 0 60.25188332451188 430.0
64935.0 91.0 0 55.20551620130368 430.0
64956.0 203.0 500 50.159149078095425 430.0
64976.0 218.0 0 45.11278195488722 430.0
64998.0 238.0 0 116.33414244272097 430.0
65019.0 277.0 0 187.55550293055472 429.0
65040.0 396.0 0 258.7768634183885 429.0
65061.0 210.0 0 329.9982239062222 429.0
65083.0 296.0 500 401.219584394056 429.0
65104.0 337.0 0 472.4409448818898 429.0
65125.0 360.0 0 453.3590682780251 429.0
65146.0 399.0 0 434.2771916741605 428.0
65168.0 408.0 0 415.1953150702959 428.0
65189.0 428.0 0 396.11343846643126 428.0
65210.0 466.0 0 377.0315618625666 428.0
65231.0 485.0 0 357.949685258702 428.0
65253.0 500.0 0 338.8678086548374 427.0
65274.0 494.0 0 319.78593205097275 427.0
65295.0 514.0 0 300.7040554471081 427.0
65316.0 514.0 0 281.6221788432435 427.0
65338.0 531.0 0 262.5403022393789 427.0
65359.0 546.0 0 243.45842563551423 427.0
65380.0 546.0 0 224.3765490316496 427.0
65422.0 512.0 0 205.29467242778497 427.0
65442.0 554.0 500 186.21279582392037 427.0
65464.0 555.0 0 167.13091922005572 427.0
65485.0 557.0 0 164.78018293586956 427.0
65507.0 557.0 0 162.4294466516834 428.0
65527.0 561.0 0 160.07871036749725 428.0
65549.0 561.0 0 157.7279740833111 428.0
65570.0 561.0 0 155.37723779912494 428.0
65591.0 561.0 0 153.0265015149388 428.0
65612.0 555.0 0 150.67576523075263 428.0
65634.0 559.0 0 148.32502894656648 429.0
65655.0 555.0 0 145.97429266238032 429.0
65676.0 556.0 0 143.62355637819417 429.0
65697.0 553.0 0 141.272820094008 429.0
65719.0 561.0 0 138.92208380982186 429.0
65740.0 561.0 0 136.5713475256357 429.0
65761.0 557.0 0 134.22061124144955 430.0
65782.0 561.0 0 131.8698749572634 430.0
65804.0 561.0 0 129.51913867307724 430.0
65825.0 556.0 0 127.1684023888911 430.0
65846.0 562.0 0 124.81766610470493 430.0
65867.0 561.0 0 122.46692982051879 430.0
65889.0 561.0 0 120.11619353633263 430.0
65930.0 536.0 0 117.76545725214648 430.0
65951.0 560.0 0 115.41472096796032 430.0
65973.0 560.0 0 113.06398468377417 429.0
65993.0 561.0 0 110.71324839958801 429.0
66015.0 556.0 0 108.36251211540187 429.0
66036.0 556.0 0 106.01177583121572 429.0
66058.0 561.0 0 103.66103954702955 428.0
66078.0 562.0 0 101.31030326284339 428.0
66100.0 559.0 0 98.95956697865724 428.0
66121.0 561.0 0 96.60883069447108 428.0
66142.0 556.0 0 94.25809441028493 427.0
66163.0 561.0 0 91.90735812609879 427.0
66185.0 561.0 0 89.55662184191263 427.0
66206.0 561.0 0 87.20588555772648 427.0
66227.0 561.0 0 84.8551492735403 426.0
66248.0 555.0 0 82.50441298935415 426.0
66270.0 561.0 0 80.153676705168 426.0
66291.0 561.0 0 77.80294042098186 426.0
66312.0 539.0 0 75.4522041367957 425.0
66333.0 533.0 0 73.10146785260955 425.0
66355.0 506.0 0 70.75073156842339 425.0
66376.0 510.0 0 68.39999528423724 425.0
66397.0 510.0 0 66.04925900005108 424.0
66439.0 358.0 0 63.698522715864925 424.0
66459.0 418.0 500 61.34778643167877 424.0
66481.0 433.0 0 58.99705014749262 424.0
66502.0 427.0 0 347.0236744573028 424.0
66524.0 484.0 500 635.0502987671128 424.0
66544.0 316.0 0 923.0769230769231 424.0
66566.0 336.0 0 888.0986688170053 424.0
66587.0 368.0 0 853.1204145570875 424.0
66609.0 345.0 0 818.1421602971698 424.0
