Time	ECG	ECG_Normalized	Heart_Rate	EDA
0.0 557.0 500 0.0 225.0
20.0 562.0 0 0.0 225.0
41.0 555.0 0 15.082956259426847 225.0
60.0 555.0 0 30.165912518853695 225.0
1725.0 311.0 0 45.248868778280546 218.0
1747.0 300.0 0 60.33182503770739 218.0
1768.0 364.0 500 75.41478129713424 218.0
1789.0 316.0 0 90.49773755656109 218.0
1810.0 181.0 0 105.58069381598793 219.0
1832.0 208.0 0 120.66365007541478 219.0
1853.0 223.0 0 135.74660633484163 219.0
1874.0 212.0 0 150.82956259426848 219.0
1895.0 217.0 0 165.91251885369533 220.0
1917.0 298.0 0 180.99547511312218 220.0
1938.0 308.0 0 196.078431372549 220.0
1959.0 306.0 0 211.16138763197586 220.0
1980.0 256.0 0 226.2443438914027 221.0
2002.0 349.0 500 241.32730015082956 221.0
2022.0 318.0 0 256.4102564102564 221.0
2054.0 347.0 0 316.27463445645265 221.0
2080.0 347.0 0 376.1390125026488 222.0
2123.0 457.0 500 436.00339054884506 222.0
2156.0 329.0 0 495.8677685950413 223.0
2178.0 313.0 0 475.09308872945235 223.0
2199.0 328.0 0 454.3184088638634 223.0
2220.0 327.0 0 433.54372899827445 224.0
2241.0 324.0 0 412.7690491326855 224.0
2263.0 320.0 0 391.99436926709654 224.0
2284.0 270.0 0 371.2196894015076 225.0
2305.0 523.0 500 350.44500953591864 225.0
2326.0 562.0 0 329.6703296703297 225.0
2348.0 562.0 0 319.19061330826037 226.0
2369.0 560.0 0 308.7108969461911 226.0
2390.0 563.0 0 298.2311805841218 226.0
2411.0 563.0 0 287.75146422205245 226.0
2433.0 563.0 0 277.2717478599832 227.0
2454.0 561.0 0 266.79203149791385 227.0
2475.0 561.0 0 256.3123151358445 227.0
2496.0 561.0 0 245.83259877377526 228.0
2518.0 560.0 0 235.35288241170593 228.0
2539.0 560.0 0 224.87316604963664 228.0
2560.0 560.0 0 214.39344968756734 229.0
2615.0 333.0 0 203.91373332549801 230.0
2636.0 314.0 0 193.43401696342875 231.0
2658.0 316.0 0 182.95430060135942 232.0
2680.0 315.0 0 172.47458423929012 233.0
2701.0 357.0 500 161.9948678772208 233.0
2721.0 562.0 0 151.5151515151515 234.0
2743.0 564.0 0 149.43208491595587 235.0
2764.0 565.0 0 147.34901831676024 236.0
2785.0 563.0 0 145.2659517175646 236.0
2806.0 565.0 0 143.18288511836897 237.0
2828.0 562.0 0 141.09981851917334 238.0
2849.0 564.0 0 139.0167519199777 238.0
2870.0 562.0 0 136.93368532078208 239.0
2891.0 561.0 0 134.85061872158644 240.0
2913.0 561.0 0 132.7675521223908 241.0
2934.0 560.0 0 130.68448552319518 241.0
2955.0 562.0 0 128.60141892399955 242.0
2976.0 563.0 0 126.51835232480393 243.0
2998.0 562.0 0 124.4352857256083 243.0
3019.0 563.0 0 122.35221912641266 244.0
3040.0 562.0 0 120.26915252721703 245.0
3061.0 562.0 0 118.1860859280214 245.0
3102.0 561.0 0 116.10301932882577 245.0
3124.0 343.0 0 114.01995272963015 245.0
3145.0 299.0 0 111.93688613043452 245.0
3167.0 308.0 0 109.85381953123888 245.0
3187.0 306.0 0 107.77075293204325 245.0
3209.0 301.0 0 105.68768633284762 245.0
3230.0 279.0 0 103.60461973365199 245.0
3252.0 276.0 0 101.52155313445635 245.0
3272.0 228.0 0 99.43848653526072 245.0
3294.0 203.0 0 97.35541993606509 245.0
3315.0 202.0 0 95.27235333686946 244.0
3337.0 238.0 0 93.18928673767383 244.0
3357.0 256.0 0 91.10622013847819 244.0
3379.0 283.0 0 89.02315353928256 244.0
3400.0 313.0 0 86.94008694008694 244.0
3422.0 306.0 0 84.8570203408913 244.0
3442.0 278.0 0 82.77395374169568 244.0
3464.0 272.0 0 80.69088714250003 244.0
3485.0 233.0 0 78.60782054330441 244.0
3507.0 536.0 500 76.52475394410878 244.0
3527.0 565.0 0 74.44168734491315 244.0
3549.0 563.0 0 75.47667442208385 244.0
3570.0 563.0 0 76.51166149925454 243.0
3611.0 563.0 0 77.54664857642526 243.0
3633.0 362.0 0 78.58163565359595 243.0
3654.0 317.0 0 79.61662273076665 243.0
3675.0 319.0 0 80.65160980793735 243.0
3696.0 312.0 0 81.68659688510805 243.0
3718.0 316.0 0 82.72158396227876 243.0
3738.0 268.0 0 83.75657103944945 243.0
3760.0 268.0 0 84.79155811662015 243.0
3781.0 233.0 0 85.82654519379085 243.0
3803.0 229.0 0 86.86153227096155 243.0
3823.0 267.0 0 87.89651934813224 242.0
3845.0 192.0 0 88.93150642530296 242.0
3866.0 230.0 0 89.96649350247365 242.0
3888.0 241.0 0 91.00148057964435 242.0
3908.0 262.0 0 92.03646765681505 242.0
3930.0 236.0 0 93.07145473398575 242.0
3951.0 224.0 0 94.10644181115646 242.0
3973.0 260.0 0 95.14142888832716 242.0
3993.0 294.0 0 96.17641596549785 242.0
4015.0 394.0 0 97.21140304266855 242.0
4036.0 160.0 0 98.24639011983925 242.0
4058.0 160.0 0 99.28137719700996 242.0
4099.0 550.0 500 100.31636427418066 242.0
4120.0 343.0 0 101.35135135135135 242.0
4141.0 320.0 0 102.079998519574 242.0
4162.0 329.0 0 102.80864568779667 242.0
4184.0 314.0 0 103.53729285601932 242.0
4205.0 332.0 0 104.26594002424198 242.0
4226.0 246.0 0 104.99458719246464 242.0
4247.0 269.0 0 105.72323436068729 242.0
4269.0 237.0 0 106.45188152890995 242.0
4289.0 251.0 0 107.1805286971326 242.0
4311.0 259.0 0 107.90917586535527 243.0
4332.0 268.0 0 108.63782303357792 243.0
4354.0 296.0 0 109.36647020180057 243.0
4374.0 315.0 0 110.09511737002323 243.0
4396.0 306.0 0 110.82376453824588 243.0
4417.0 296.0 0 111.55241170646855 243.0
4439.0 300.0 0 112.2810588746912 243.0
4459.0 310.0 0 113.00970604291385 243.0
4481.0 299.0 0 113.73835321113651 243.0
4502.0 289.0 0 114.46700037935916 243.0
4523.0 218.0 0 115.19564754758181 243.0
4544.0 199.0 0 115.92429471580448 243.0
4566.0 199.0 0 116.65294188402713 243.0
4607.0 536.0 500 117.3815890522498 243.0
4628.0 348.0 0 118.11023622047244 243.0
4650.0 323.0 0 134.87064116985377 243.0
4670.0 333.0 0 151.6310461192351 242.0
4692.0 335.0 0 168.39145106861642 242.0
4713.0 323.0 0 185.15185601799777 242.0
4735.0 200.0 0 201.9122609673791 242.0
4755.0 169.0 0 218.67266591676042 242.0
4777.0 97.0 0 235.43307086614175 241.0
4797.0 94.0 0 252.19347581552307 241.0
4817.0 150.0 500 268.9538807649044 241.0
4838.0 122.0 0 285.7142857142857 241.0
4860.0 85.0 0 513.0568356374808 240.0
4879.0 154.0 500 740.3993855606759 240.0
4901.0 80.0 0 967.741935483871 240.0
4921.0 130.0 500 1198.1566820276498 240.0
4943.0 144.0 0 1428.5714285714287 240.0
4963.0 134.0 0 1290.1069518716579 239.0
4985.0 115.0 0 1151.6424751718869 239.0
5006.0 73.0 0 1013.1779984721161 239.0
5025.0 93.0 0 874.7135217723453 239.0
5046.0 107.0 0 736.2490450725745 239.0
5067.0 107.0 0 597.7845683728036 239.0
5108.0 531.0 500 459.3200916730327 240.0
5130.0 345.0 0 320.85561497326205 240.0
5151.0 330.0 0 317.0719402683887 240.0
5172.0 330.0 0 313.2882655635153 241.0
5193.0 336.0 0 309.5045908586419 241.0
5215.0 329.0 0 305.72091615376854 242.0
5236.0 320.0 0 301.9372414488952 242.0
5257.0 274.0 0 298.1535667440218 243.0
5278.0 239.0 0 294.36989203914845 243.0
5300.0 234.0 0 290.58621733427503 243.0
5320.0 562.0 500 286.80254262940167 244.0
5342.0 559.0 0 283.0188679245283 244.0
5363.0 562.0 0 279.69110897801244 245.0
5385.0 562.0 0 276.36335003149657 245.0
5405.0 562.0 0 273.03559108498064 245.0
5427.0 564.0 0 269.70783213846477 246.0
5448.0 562.0 0 266.3800731919489 246.0
5470.0 562.0 0 263.052314245433 247.0
5490.0 563.0 0 259.7245552989171 247.0
5512.0 561.0 0 256.3967963524012 248.0
5533.0 563.0 0 253.06903740588535 248.0
5554.0 563.0 0 249.74127845936948 248.0
5575.0 563.0 0 246.41351951285358 248.0
5616.0 562.0 0 243.0857605663377 248.0
5638.0 362.0 0 239.7580016198218 248.0
5659.0 305.0 0 236.43024267330594 248.0
5681.0 317.0 0 233.10248372679007 248.0
5701.0 318.0 0 229.77472478027417 248.0
5723.0 309.0 0 226.44696583375827 248.0
5744.0 295.0 0 223.1192068872424 248.0
5765.0 259.0 0 219.79144794072653 248.0
5786.0 275.0 0 216.46368899421063 248.0
5808.0 293.0 0 213.13593004769476 247.0
5829.0 269.0 0 209.80817110117886 247.0
5850.0 232.0 0 206.480412154663 247.0
5871.0 246.0 0 203.15265320814711 247.0
5893.0 271.0 0 199.82489426163124 247.0
5914.0 562.0 0 196.49713531511532 247.0
5935.0 563.0 0 193.16937636859944 247.0
5956.0 558.0 0 189.84161742208357 247.0
5978.0 559.0 0 186.5138584755677 247.0
5999.0 563.0 0 183.1860995290518 247.0
6020.0 558.0 0 179.8583405825359 247.0
6041.0 563.0 0 176.53058163602003 247.0
6063.0 563.0 0 173.20282268950416 246.0
6104.0 557.0 0 169.87506374298826 246.0
6125.0 363.0 0 166.5473047964724 246.0
6146.0 319.0 0 163.2195458499565 246.0
6167.0 306.0 0 159.89178690344062 246.0
6189.0 317.0 0 156.56402795692475 246.0
6210.0 318.0 0 153.23626901040888 246.0
6231.0 401.0 0 149.90851006389295 246.0
6252.0 562.0 0 146.58075111737708 246.0
6274.0 563.0 0 143.2529921708612 246.0
6294.0 557.0 0 139.92523322434533 246.0
6316.0 562.0 0 136.59747427782943 245.0
6337.0 563.0 0 133.26971533131353 245.0
6359.0 559.0 0 129.94195638479766 245.0
6379.0 562.0 0 126.61419743828179 245.0
6401.0 563.0 0 123.28643849176589 245.0
6422.0 557.0 0 119.95867954525002 245.0
6444.0 562.0 0 116.63092059873415 245.0
6464.0 562.0 0 113.30316165221825 245.0
6486.0 557.0 0 109.97540270570235 245.0
6507.0 563.0 0 106.64764375918648 245.0
6529.0 557.0 0 103.31988481267061 245.0
6549.0 562.0 0 99.99212586615474 245.0
6571.0 562.0 0 96.66436691963881 245.0
6612.0 560.0 0 93.33660797312294 245.0
6633.0 336.0 0 90.00884902660707 245.0
6655.0 298.0 0 86.6810900800912 245.0
6675.0 310.0 0 83.3533311335753 245.0
6697.0 305.0 0 80.0255721870594 246.0
6718.0 306.0 0 76.69781324054352 246.0
6740.0 220.0 0 73.37005429402765 246.0
6760.0 191.0 0 70.04229534751175 246.0
6782.0 186.0 0 66.71453640099588 246.0
6803.0 173.0 0 63.38677745448001 246.0
6825.0 179.0 0 60.05901850796411 247.0
6845.0 203.0 0 56.73125956144821 247.0
6867.0 234.0 0 53.40350061493234 247.0
6888.0 248.0 0 50.07574166841647 247.0
6909.0 208.0 0 46.7479827219006 247.0
6930.0 173.0 0 43.42022377538467 247.0
6952.0 235.0 500 40.0924648288688 248.0
6973.0 213.0 0 36.76470588235294 248.0
6994.0 196.0 0 98.66446578631454 248.0
7015.0 185.0 0 160.56422569027612 248.0
7037.0 169.0 0 222.46398559423773 248.0
7058.0 169.0 0 284.3637454981993 249.0
7099.0 559.0 500 346.2635054021609 250.0
7121.0 335.0 0 408.16326530612247 251.0
7141.0 325.0 0 395.552264041529 252.0
7163.0 325.0 0 382.9412627769355 253.0
7184.0 324.0 0 370.330261512342 254.0
7205.0 326.0 0 357.71926024774854 254.0
7226.0 333.0 0 345.1082589831551 255.0
7248.0 324.0 0 332.4972577185616 256.0
7269.0 311.0 0 319.88625645396814 257.0
7290.0 319.0 0 307.27525518937466 258.0
7311.0 311.0 0 294.6642539247812 259.0
7333.0 290.0 0 282.0532526601877 260.0
7354.0 267.0 0 269.4422513955942 260.0
7375.0 277.0 0 256.83125013100073 261.0
7396.0 286.0 0 244.22024886640727 262.0
7418.0 280.0 0 231.60924760181376 263.0
7439.0 236.0 0 218.9982463372203 264.0
7460.0 225.0 0 206.38724507262683 265.0
7481.0 259.0 0 193.77624380803334 265.0
7503.0 274.0 0 181.16524254343986 266.0
7523.0 274.0 0 168.55424127884638 267.0
7545.0 261.0 0 155.94324001425292 268.0
7566.0 261.0 0 143.33223874965944 268.0
7607.0 545.0 500 130.72123748506596 268.0
7628.0 338.0 0 118.11023622047244 268.0
7650.0 327.0 0 117.044272101813 267.0
7670.0 331.0 0 115.97830798315354 267.0
7692.0 320.0 0 114.91234386449408 267.0
7713.0 333.0 0 113.84637974583462 266.0
7735.0 561.0 0 112.78041562717517 266.0
7755.0 557.0 0 111.71445150851571 266.0
7777.0 563.0 0 110.64848738985626 265.0
7798.0 562.0 0 109.5825232711968 265.0
7820.0 557.0 0 108.51655915253735 265.0
7840.0 562.0 0 107.4505950338779 265.0
7862.0 562.0 0 106.38463091521844 264.0
7883.0 557.0 0 105.31866679655899 264.0
7905.0 562.0 0 104.25270267789953 264.0
7925.0 563.0 0 103.18673855924007 263.0
7947.0 557.0 0 102.12077444058062 263.0
7968.0 562.0 0 101.05481032192117 263.0
7989.0 557.0 0 99.98884620326172 262.0
8010.0 563.0 0 98.92288208460225 262.0
8032.0 557.0 0 97.8569179659428 262.0
8053.0 561.0 0 96.79095384728335 262.0
8074.0 561.0 0 95.7249897286239 262.0
8116.0 562.0 0 94.65902560996443 263.0
8136.0 349.0 0 93.59306149130498 264.0
8158.0 315.0 0 92.52709737264553 264.0
8179.0 311.0 0 91.46113325398608 265.0
8201.0 313.0 0 90.39516913532663 265.0
8221.0 306.0 0 89.32920501666716 266.0
8243.0 293.0 0 88.26324089800771 266.0
8264.0 250.0 0 87.19727677934824 267.0
8286.0 255.0 0 86.13131266068879 267.0
8306.0 281.0 0 85.06534854202934 268.0
8328.0 340.0 0 83.99938442336989 269.0
8349.0 359.0 0 82.93342030471044 269.0
8371.0 410.0 0 81.86745618605097 270.0
8391.0 563.0 0 80.80149206739152 270.0
8413.0 561.0 0 79.73552794873206 271.0
8434.0 562.0 0 78.6695638300726 271.0
8456.0 561.0 0 77.60359971141315 272.0
8476.0 562.0 0 76.5376355927537 272.0
8498.0 562.0 0 75.47167147409425 273.0
8519.0 561.0 0 74.4057073554348 274.0
8541.0 561.0 0 73.33974323677535 274.0
8561.0 561.0 0 72.27377911811587 274.0
8603.0 562.0 0 71.20781499945643 274.0
8624.0 360.0 0 70.14185088079698 273.0
8645.0 304.0 0 69.07588676213751 273.0
8667.0 312.0 0 68.00992264347806 273.0
8687.0 314.0 0 66.94395852481861 272.0
8709.0 304.0 0 65.87799440615916 272.0
8730.0 334.0 0 64.8120302874997 272.0
8752.0 563.0 0 63.746066168840244 271.0
8772.0 558.0 0 62.68010205018079 271.0
8794.0 563.0 0 61.61413793152133 271.0
8815.0 563.0 0 60.54817381286188 270.0
8837.0 558.0 0 59.48220969420242 270.0
8857.0 562.0 0 58.416245575542966 270.0
8879.0 563.0 0 57.350281456883515 269.0
8900.0 559.0 0 56.28431733822406 269.0
8922.0 563.0 0 55.218353219564605 269.0
8942.0 563.0 0 54.15238910090515 268.0
8964.0 557.0 0 53.08642498224569 268.0
8985.0 562.0 0 52.02046086358624 268.0
9007.0 563.0 0 50.954496744926786 267.0
9027.0 563.0 0 49.888532626267335 267.0
9049.0 563.0 0 48.82256850760787 267.0
9070.0 563.0 0 47.75660438894842 267.0
9111.0 562.0 0 46.69064027028897 267.0
9133.0 331.0 0 45.6246761516295 268.0
9154.0 306.0 0 44.558712032970064 268.0
9175.0 306.0 0 43.4927479143106 268.0
9196.0 300.0 0 42.42678379565115 268.0
9218.0 308.0 0 41.36081967699168 269.0
9238.0 205.0 0 40.29485555833223 269.0
9260.0 170.0 0 39.22889143967278 269.0
9281.0 207.0 0 38.16292732101333 270.0
9303.0 122.0 0 37.09696320235388 270.0
9323.0 466.0 500 36.03099908369441 270.0
9345.0 562.0 0 34.96503496503497 271.0
9366.0 563.0 0 35.383153946660684 271.0
9388.0 557.0 0 35.801272928286394 271.0
9408.0 562.0 0 36.21939190991211 271.0
9430.0 564.0 0 36.63751089153783 272.0
9451.0 557.0 0 37.05562987316354 272.0
9473.0 562.0 0 37.47374885478926 272.0
9493.0 564.0 0 37.891867836414974 273.0
9515.0 557.0 0 38.309986818040684 273.0
9536.0 564.0 0 38.7281057996664 273.0
9558.0 564.0 0 39.14622478129212 274.0
9599.0 557.0 0 39.56434376291784 274.0
9620.0 347.0 0 39.98246274454355 274.0
9641.0 310.0 0 40.400581726169264 274.0
9662.0 297.0 0 40.81870070779498 275.0
9684.0 308.0 0 41.23681968942069 275.0
9705.0 311.0 0 41.65493867104641 275.0
9726.0 357.0 0 42.07305765267213 275.0
9747.0 406.0 0 42.491176634297844 275.0
9769.0 565.0 0 42.909295615923554 276.0
9789.0 557.0 0 43.32741459754927 276.0
9811.0 562.0 0 43.74553357917499 276.0
9832.0 563.0 0 44.1636525608007 276.0
9854.0 557.0 0 44.58177154242642 276.0
9874.0 562.0 0 44.999890524052134 277.0
9896.0 562.0 0 45.418009505677844 277.0
9917.0 557.0 0 45.83612848730356 277.0
9939.0 562.0 0 46.25424746892928 277.0
9959.0 563.0 0 46.67236645055499 278.0
9981.0 557.0 0 47.09048543218071 278.0
10002.0 563.0 0 47.508604413806424 278.0
10024.0 557.0 0 47.926723395432134 278.0
10044.0 563.0 0 48.34484237705785 278.0
10066.0 563.0 0 48.76296135868357 278.0
10107.0 557.0 0 49.18108034030928 278.0
10128.0 341.0 0 49.599199321935 278.0
10150.0 303.0 0 50.017318303560714 278.0
10171.0 302.0 0 50.435437285186424 278.0
10192.0 296.0 0 50.85355626681214 277.0
10213.0 307.0 0 51.27167524843786 277.0
10235.0 320.0 0 51.689794230063576 277.0
10256.0 290.0 0 52.107913211689294 277.0
10277.0 306.0 0 52.526032193315004 277.0
10298.0 263.0 0 52.94415117494072 277.0
10320.0 262.0 0 53.36227015656644 276.0
10340.0 224.0 0 53.78038913819215 276.0
10362.0 189.0 0 54.198508119817866 276.0
10383.0 167.0 0 54.616627101443584 276.0
10405.0 330.0 500 55.034746083069294 276.0
10425.0 300.0 0 55.45286506469501 276.0
10447.0 302.0 0 158.6480063374703 275.0
10468.0 335.0 0 261.8431476102456 275.0
10490.0 227.0 0 365.0382888830208 275.0
10510.0 543.0 500 468.23343015579616 275.0
10532.0 561.0 0 571.4285714285714 275.0
10553.0 559.0 0 553.3421047754944 275.0
10575.0 559.0 0 535.2556381224172 274.0
10616.0 563.0 0 517.1691714693401 274.0
10637.0 358.0 0 499.082704816263 274.0
10657.0 311.0 0 480.9962381631859 274.0
10679.0 319.0 0 462.9097715101088 274.0
10700.0 315.0 0 444.8233048570317 274.0
10722.0 311.0 0 426.73683820395456 274.0
10742.0 291.0 0 408.6503715508775 273.0
10764.0 273.0 0 390.56390489780034 273.0
10785.0 258.0 0 372.47743824472326 273.0
10807.0 238.0 0 354.3909715916461 273.0
10827.0 232.0 0 336.30450493856904 273.0
10849.0 236.0 0 318.21803828549196 273.0
10870.0 283.0 0 300.1315716324149 273.0
10891.0 279.0 0 282.0451049793377 272.0
10912.0 296.0 0 263.9586383262606 272.0
10934.0 281.0 0 245.87217167318352 272.0
10955.0 304.0 0 227.78570502010643 272.0
10976.0 329.0 0 209.69923836702924 272.0
10997.0 308.0 0 191.61277171395216 272.0
11019.0 249.0 0 173.52630506087507 272.0
11040.0 211.0 0 155.439838407798 272.0
11061.0 211.0 0 137.3533717547208 272.0
11103.0 547.0 500 119.26690510164372 272.0
11123.0 338.0 0 101.1804384485666 272.0
11145.0 319.0 0 163.05718952078712 272.0
11166.0 332.0 0 224.93394059300766 272.0
11188.0 323.0 0 286.8106916652282 272.0
11208.0 322.0 0 348.6874427374487 272.0
11230.0 375.0 500 410.5641938096693 272.0
11251.0 561.0 0 472.4409448818898 272.0
11273.0 557.0 0 462.0994956275627 272.0
11293.0 559.0 0 451.75804637323563 272.0
11315.0 558.0 0 441.41659711890856 272.0
11336.0 556.0 0 431.0751478645815 272.0
11357.0 557.0 0 420.73369861025435 272.0
11378.0 562.0 0 410.3922493559273 272.0
11400.0 559.0 0 400.0508001016002 272.0
11421.0 555.0 0 389.70935084727313 272.0
11442.0 562.0 0 379.36790159294605 272.0
11463.0 558.0 0 369.026452338619 272.0
11485.0 557.0 0 358.6850030842919 272.0
11506.0 563.0 0 348.3435538299648 272.0
11527.0 562.0 0 338.00210457563776 272.0
11548.0 557.0 0 327.6606553213106 272.0
11570.0 557.0 0 317.31920606698355 271.0
11611.0 562.0 0 306.9777568126565 271.0
11632.0 355.0 0 296.6363075583294 270.0
11653.0 311.0 0 286.29485830400233 270.0
11674.0 310.0 0 275.9534090496752 269.0
11696.0 311.0 0 265.6119597953482 269.0
11717.0 313.0 0 255.27051054102108 269.0
11738.0 277.0 0 244.92906128669398 268.0
11759.0 260.0 0 234.5876120323669 268.0
11781.0 290.0 0 224.2461627780398 267.0
11802.0 302.0 0 213.9047135237127 267.0
11823.0 306.0 0 203.56326426938568 267.0
11844.0 305.0 0 193.2218150150586 266.0
11866.0 320.0 0 182.88036576073148 266.0
11887.0 320.0 0 172.5389165064044 266.0
11908.0 291.0 0 162.19746725207733 265.0
11929.0 304.0 0 151.85601799775026 265.0
11951.0 311.0 0 141.51456874342318 264.0
11972.0 266.0 0 131.1731194890961 264.0
11993.0 267.0 0 120.83167023476904 264.0
12014.0 262.0 0 110.4902209804419 263.0
12036.0 272.0 0 100.14877172611483 263.0
12057.0 272.0 0 89.80732247178781 263.0
12098.0 547.0 500 79.46587321746068 263.0
12120.0 335.0 0 69.12442396313364 264.0
12140.0 328.0 0 69.64285714285714 264.0
12162.0 325.0 0 70.16129032258064 264.0
12183.0 323.0 0 70.67972350230414 265.0
12204.0 326.0 0 71.19815668202764 265.0
12225.0 558.0 0 71.71658986175115 265.0
12247.0 564.0 0 72.23502304147465 266.0
12268.0 560.0 0 72.75345622119815 266.0
12289.0 564.0 0 73.27188940092165 266.0
12310.0 564.0 0 73.79032258064515 267.0
12332.0 562.0 0 74.30875576036865 267.0
12353.0 564.0 0 74.82718894009216 267.0
12374.0 564.0 0 75.34562211981566 268.0
12395.0 561.0 0 75.86405529953916 268.0
12417.0 563.0 0 76.38248847926266 268.0
12438.0 563.0 0 76.90092165898616 269.0
12459.0 561.0 0 77.41935483870967 269.0
12480.0 562.0 0 77.93778801843317 269.0
12502.0 565.0 0 78.45622119815667 270.0
12523.0 562.0 0 78.97465437788019 270.0
12544.0 562.0 0 79.49308755760369 270.0
12565.0 562.0 0 80.01152073732719 271.0
12606.0 564.0 0 80.52995391705069 271.0
12628.0 348.0 0 81.04838709677419 271.0
12649.0 313.0 0 81.5668202764977 271.0
12671.0 294.0 0 82.0852534562212 271.0
12691.0 298.0 0 82.6036866359447 271.0
12713.0 312.0 0 83.1221198156682 271.0
12734.0 312.0 0 83.6405529953917 271.0
12755.0 285.0 0 84.1589861751152 271.0
12776.0 236.0 0 84.6774193548387 271.0
12798.0 561.0 500 85.1958525345622 271.0
12819.0 557.0 0 85.71428571428571 271.0
12840.0 561.0 0 85.16770998785387 271.0
12861.0 562.0 0 84.62113426142203 271.0
12883.0 561.0 0 84.07455853499019 271.0
12904.0 557.0 0 83.52798280855835 271.0
12925.0 562.0 0 82.9814070821265 271.0
12946.0 563.0 0 82.43483135569466 271.0
12968.0 557.0 0 81.88825562926282 271.0
12988.0 562.0 0 81.34167990283098 271.0
13010.0 562.0 0 80.79510417639914 271.0
13031.0 557.0 0 80.2485284499673 271.0
13053.0 562.0 0 79.70195272353546 271.0
13073.0 562.0 0 79.15537699710362 271.0
13115.0 562.0 0 78.60880127067176 271.0
13136.0 349.0 0 78.06222554423992 271.0
13157.0 310.0 0 77.51564981780808 272.0
13179.0 297.0 0 76.96907409137624 272.0
13200.0 308.0 0 76.4224983649444 272.0
13221.0 313.0 0 75.87592263851256 272.0
13242.0 343.0 0 75.32934691208072 273.0
13264.0 391.0 0 74.78277118564888 273.0
13285.0 563.0 0 74.23619545921704 273.0
13306.0 557.0 0 73.68961973278519 273.0
13327.0 562.0 0 73.14304400635335 274.0
13349.0 563.0 0 72.59646827992151 274.0
13369.0 558.0 0 72.04989255348967 274.0
13391.0 562.0 0 71.50331682705783 275.0
13412.0 563.0 0 70.95674110062599 275.0
13434.0 559.0 0 70.41016537419415 275.0
13454.0 562.0 0 69.86358964776231 275.0
13476.0 563.0 0 69.31701392133047 276.0
13497.0 557.0 0 68.77043819489862 276.0
13519.0 562.0 0 68.22386246846678 276.0
13539.0 563.0 0 67.67728674203494 276.0
13561.0 563.0 0 67.1307110156031 277.0
13601.0 557.0 0 66.58413528917126 277.0
13623.0 346.0 0 66.03755956273942 277.0
13644.0 296.0 0 65.49098383630758 277.0
13666.0 307.0 0 64.94440810987574 277.0
13686.0 297.0 0 64.3978323834439 277.0
13708.0 308.0 0 63.85125665701205 277.0
13729.0 338.0 0 63.30468093058021 277.0
13751.0 331.0 0 62.758105204148364 277.0
13771.0 562.0 500 62.211529477716525 277.0
13793.0 564.0 0 61.664953751284685 277.0
13814.0 559.0 0 62.22958845544461 278.0
13836.0 561.0 0 62.79422315960455 278.0
13856.0 565.0 0 63.35885786376448 278.0
13878.0 557.0 0 63.92349256792441 278.0
13899.0 562.0 0 64.48812727208434 278.0
13921.0 565.0 0 65.05276197624427 278.0
13941.0 564.0 0 65.61739668040421 278.0
13963.0 563.0 0 66.18203138456414 278.0
13984.0 563.0 0 66.74666608872407 278.0
14005.0 563.0 0 67.311300792884 278.0
14026.0 563.0 0 67.87593549704394 278.0
14048.0 562.0 0 68.44057020120387 278.0
14069.0 562.0 0 69.0052049053638 279.0
14110.0 561.0 0 69.56983960952373 281.0
14132.0 343.0 0 70.13447431368365 283.0
14152.0 296.0 0 70.6991090178436 284.0
14174.0 306.0 0 71.26374372200353 285.0
14195.0 302.0 0 71.82837842616345 286.0
14217.0 297.0 0 72.3930131303234 287.0
14237.0 249.0 0 72.95764783448332 289.0
14259.0 228.0 0 73.52228253864325 290.0
14280.0 217.0 0 74.08691724280318 291.0
14302.0 229.0 0 74.65155194696311 292.0
14322.0 220.0 0 75.21618665112305 293.0
14344.0 200.0 0 75.78082135528298 295.0
14365.0 206.0 0 76.34545605944291 296.0
14387.0 223.0 0 76.91009076360284 297.0
14407.0 252.0 0 77.47472546776277 298.0
14429.0 249.0 0 78.03936017192271 299.0
14450.0 175.0 0 78.60399487608264 301.0
14471.0 195.0 0 79.16862958024257 302.0
14492.0 99.0 0 79.73326428440251 303.0
14513.0 298.0 500 80.29789898856244 304.0
14534.0 557.0 0 80.86253369272237 305.0
14555.0 557.0 0 98.63834928896738 306.0
14576.0 557.0 0 116.41416488521239 306.0
14617.0 561.0 0 134.18998048145738 304.0
14639.0 364.0 0 151.9657960777024 303.0
14660.0 314.0 0 169.7416116739474 303.0
14682.0 320.0 0 187.5174272701924 302.0
14702.0 320.0 0 205.29324286643742 301.0
14724.0 311.0 0 223.06905846268242 300.0
14745.0 356.0 500 240.84487405892745 299.0
14767.0 562.0 0 258.62068965517244 299.0
14787.0 563.0 0 254.47545441347935 298.0
14809.0 557.0 0 250.33021917178627 297.0
14830.0 557.0 0 246.18498393009315 296.0
14852.0 563.0 0 242.03974868840007 295.0
14872.0 557.0 0 237.89451344670698 295.0
14894.0 562.0 0 233.7492782050139 294.0
14915.0 563.0 0 229.6040429633208 293.0
14936.0 558.0 0 225.4588077216277 292.0
14957.0 562.0 0 221.3135724799346 291.0
14979.0 563.0 0 217.16833723824152 290.0
15000.0 559.0 0 213.02310199654843 290.0
15021.0 562.0 0 208.87786675485535 289.0
15042.0 563.0 0 204.73263151316223 288.0
15064.0 563.0 0 200.58739627146915 288.0
15105.0 557.0 0 196.44216102977606 291.0
15126.0 343.0 0 192.29692578808297 292.0
15148.0 308.0 0 188.1516905463899 293.0
15168.0 301.0 0 184.00645530469677 295.0
15190.0 306.0 0 179.86122006300369 296.0
15211.0 307.0 0 175.7159848213106 297.0
15233.0 557.0 0 171.5707495796175 299.0
15253.0 562.0 0 167.42551433792443 300.0
15275.0 557.0 0 163.2802790962313 301.0
15296.0 557.0 0 159.13504385453822 303.0
15318.0 561.0 0 154.98980861284514 304.0
15338.0 556.0 0 150.84457337115202 305.0
15360.0 560.0 0 146.69933812945897 307.0
15381.0 557.0 0 142.55410288776585 308.0
15402.0 560.0 0 138.40886764607276 310.0
15423.0 557.0 0 134.26363240437968 311.0
15445.0 559.0 0 130.11839716268656 312.0
15466.0 559.0 0 125.9731619209935 314.0
15487.0 557.0 0 121.82792667930039 315.0
15508.0 563.0 0 117.6826914376073 316.0
15530.0 560.0 0 113.53745619591422 318.0
15551.0 557.0 0 109.3922209542211 319.0
15572.0 557.0 0 105.24698571252804 320.0
15614.0 560.0 0 101.10175047083493 321.0
15634.0 337.0 0 96.95651522914184 322.0
15656.0 296.0 0 92.81127998744876 322.0
15677.0 303.0 0 88.66604474575564 323.0
15699.0 302.0 0 84.52080950406258 323.0
15719.0 297.0 0 80.37557426236947 324.0
15741.0 294.0 0 76.23033902067638 324.0
15762.0 319.0 0 72.0851037789833 325.0
15784.0 388.0 0 67.93986853729018 325.0
15804.0 343.0 0 63.79463329559712 326.0
15826.0 557.0 500 59.64939805390401 326.0
15847.0 557.0 0 55.504162812210915 327.0
15869.0 562.0 0 60.71247217504828 328.0
15889.0 557.0 0 65.92078153788566 328.0
15911.0 558.0 0 71.12909090072303 329.0
15932.0 562.0 0 76.3374002635604 329.0
15953.0 561.0 0 81.54570962639777 330.0
15974.0 559.0 0 86.75401898923513 330.0
15996.0 562.0 0 91.96232835207252 331.0
16017.0 559.0 0 97.17063771490987 331.0
16038.0 557.0 0 102.37894707774726 332.0
16059.0 557.0 0 107.58725644058462 333.0
16100.0 561.0 0 112.795565803422 334.0
16122.0 345.0 0 118.00387516625935 334.0
16143.0 295.0 0 123.21218452909673 335.0
16165.0 308.0 0 128.42049389193411 335.0
16185.0 302.0 0 133.62880325477147 336.0
16207.0 297.0 0 138.83711261760882 336.0
16228.0 562.0 500 144.0454219804462 337.0
16250.0 561.0 0 149.2537313432836 337.0
16270.0 557.0 0 147.89966633794398 338.0
16292.0 562.0 0 146.54560133260435 338.0
16313.0 560.0 0 145.19153632726474 339.0
16335.0 557.0 0 143.83747132192514 339.0
16355.0 563.0 0 142.4834063165855 340.0
16377.0 560.0 0 141.1293413112459 340.0
16398.0 556.0 0 139.7752763059063 341.0
16420.0 562.0 0 138.42121130056668 341.0
16440.0 561.0 0 137.06714629522705 342.0
16462.0 556.0 0 135.71308128988744 342.0
16483.0 563.0 0 134.35901628454783 343.0
16504.0 561.0 0 133.0049512792082 343.0
16525.0 555.0 0 131.6508862738686 344.0
16547.0 562.0 0 130.296821268529 344.0
16568.0 562.0 0 128.94275626318935 345.0
16609.0 555.0 0 127.58869125784975 345.0
16630.0 342.0 0 126.23462625251014 346.0
16651.0 298.0 0 124.88056124717052 346.0
16672.0 297.0 0 123.5264962418309 347.0
16694.0 307.0 0 122.17243123649129 347.0
16715.0 306.0 0 120.81836623115167 347.0
16736.0 555.0 500 119.46430122581205 348.0
16757.0 562.0 0 118.11023622047244 348.0
16779.0 557.0 0 116.82885158223147 348.0
16800.0 560.0 0 115.5474669439905 349.0
16821.0 559.0 0 114.26608230574952 349.0
16842.0 561.0 0 112.98469766750854 350.0
16864.0 561.0 0 111.70331302926758 350.0
16885.0 556.0 0 110.4219283910266 350.0
16906.0 557.0 0 109.14054375278562 351.0
16927.0 562.0 0 107.85915911454465 351.0
16949.0 560.0 0 106.57777447630367 352.0
16970.0 557.0 0 105.2963898380627 352.0
16991.0 563.0 0 104.01500519982173 352.0
17012.0 561.0 0 102.73362056158075 353.0
17034.0 557.0 0 101.45223592333977 353.0
17054.0 562.0 0 100.17085128509879 353.0
17076.0 562.0 0 98.88946664685783 353.0
17118.0 559.0 0 97.60808200861685 353.0
17138.0 335.0 0 96.32669737037588 353.0
17160.0 302.0 0 95.0453127321349 353.0
17181.0 303.0 0 93.76392809389392 353.0
17202.0 300.0 0 92.48254345565294 353.0
17223.0 309.0 0 91.20115881741198 353.0
17245.0 348.0 0 89.919774179171 353.0
17266.0 562.0 0 88.63838954093002 353.0
17287.0 556.0 0 87.35700490268906 353.0
17308.0 562.0 0 86.07562026444808 353.0
17330.0 560.0 0 84.7942356262071 353.0
17351.0 562.0 0 83.51285098796612 353.0
17372.0 562.0 0 82.23146634972515 353.0
17393.0 560.0 0 80.95008171148419 353.0
17415.0 562.0 0 79.66869707324321 353.0
17436.0 562.0 0 78.38731243500223 353.0
17457.0 560.0 0 77.10592779676125 353.0
17478.0 563.0 0 75.82454315852027 353.0
17500.0 563.0 0 74.5431585202793 353.0
17521.0 560.0 0 73.26177388203834 353.0
17542.0 563.0 0 71.98038924379736 353.0
17563.0 563.0 0 70.69900460555638 352.0
17604.0 560.0 0 69.4176199673154 350.0
17626.0 348.0 0 68.13623532907442 349.0
17647.0 302.0 0 66.85485069083346 348.0
17669.0 301.0 0 65.5734660525925 347.0
17689.0 303.0 0 64.29208141435151 346.0
17711.0 303.0 0 63.01069677611053 345.0
17732.0 247.0 0 61.72931213786956 344.0
17753.0 233.0 0 60.447927499628584 343.0
17774.0 180.0 0 59.166542861387605 342.0
17796.0 311.0 500 57.88515822314664 341.0
17817.0 563.0 0 56.60377358490566 340.0
17838.0 564.0 0 60.530341662417136 338.0
17859.0 560.0 0 64.4569097399286 337.0
17881.0 562.0 0 68.38347781744008 336.0
17902.0 564.0 0 72.31004589495156 335.0
17923.0 560.0 0 76.23661397246303 334.0
17944.0 562.0 0 80.1631820499745 333.0
17966.0 564.0 0 84.08975012748597 332.0
17987.0 560.0 0 88.01631820499745 331.0
18008.0 562.0 0 91.94288628250892 330.0
18029.0 565.0 0 95.8694543600204 329.0
18051.0 560.0 0 99.79602243753186 328.0
18072.0 560.0 0 103.72259051504334 328.0
18113.0 556.0 0 107.64915859255481 328.0
18135.0 345.0 0 111.57572667006627 329.0
18155.0 303.0 0 115.50229474757776 329.0
18177.0 310.0 0 119.42886282508923 329.0
18198.0 308.0 0 123.35543090260069 330.0
18220.0 299.0 0 127.28199898011218 330.0
18240.0 561.0 500 131.20856705762364 330.0
18262.0 563.0 0 135.13513513513513 331.0
18283.0 563.0 0 133.46947750157378 331.0
18304.0 561.0 0 131.80381986801245 331.0
18325.0 561.0 0 130.1381622344511 332.0
18347.0 565.0 0 128.47250460088975 332.0
18368.0 562.0 0 126.80684696732841 332.0
18389.0 563.0 0 125.14118933376706 333.0
18410.0 562.0 0 123.47553170020572 333.0
18432.0 562.0 0 121.80987406664437 334.0
18453.0 562.0 0 120.14421643308303 334.0
18474.0 561.0 0 118.47855879952169 334.0
18495.0 562.0 0 116.81290116596034 335.0
18517.0 563.0 0 115.14724353239899 335.0
18538.0 563.0 0 113.48158589883765 335.0
18559.0 563.0 0 111.81592826527631 336.0
18601.0 561.0 0 110.15027063171496 338.0
18621.0 346.0 0 108.48461299815361 339.0
18643.0 292.0 0 106.81895536459227 340.0
18664.0 300.0 0 105.15329773103093 341.0
18686.0 301.0 0 103.48764009746958 342.0
18706.0 303.0 0 101.82198246390824 343.0
18728.0 558.0 0 100.15632483034689 344.0
18749.0 562.0 0 98.49066719678555 345.0
18771.0 562.0 0 96.8250095632242 346.0
18791.0 558.0 0 95.15935192966286 347.0
18813.0 562.0 0 93.49369429610151 348.0
18834.0 562.0 0 91.82803666254017 349.0
18856.0 558.0 0 90.16237902897882 350.0
18876.0 563.0 0 88.49672139541748 351.0
18898.0 563.0 0 86.83106376185613 353.0
18919.0 557.0 0 85.16540612829479 354.0
18940.0 562.0 0 83.49974849473344 355.0
18961.0 562.0 0 81.8340908611721 356.0
18983.0 557.0 0 80.16843322761076 357.0
19004.0 562.0 0 78.50277559404941 358.0
19025.0 557.0 0 76.83711796048806 359.0
19046.0 562.0 0 75.17146032692672 360.0
19068.0 562.0 0 73.50580269336538 360.0
19109.0 557.0 0 71.84014505980403 360.0
19130.0 344.0 0 70.17448742624269 360.0
19152.0 302.0 0 68.50882979268135 360.0
19172.0 293.0 0 66.84317215912 360.0
19194.0 306.0 0 65.17751452555865 360.0
19215.0 306.0 0 63.51185689199731 360.0
19237.0 557.0 500 61.84619925843597 360.0
19257.0 562.0 0 60.18054162487462 360.0
19279.0 562.0 0 61.3842182320501 360.0
19300.0 557.0 0 62.587894839225584 360.0
19322.0 562.0 0 63.791571446401065 360.0
19342.0 562.0 0 64.99524805357655 360.0
19364.0 562.0 0 66.19892466075203 360.0
19385.0 557.0 0 67.40260126792751 360.0
19407.0 562.0 0 68.60627787510299 360.0
19427.0 557.0 0 69.80995448227847 360.0
19449.0 557.0 0 71.01363108945394 360.0
19470.0 561.0 0 72.21730769662942 360.0
19491.0 557.0 0 73.4209843038049 360.0
19512.0 562.0 0 74.62466091098038 360.0
19534.0 563.0 0 75.82833751815586 360.0
19555.0 559.0 0 77.03201412533134 360.0
19576.0 559.0 0 78.23569073250682 359.0
19617.0 558.0 0 79.4393673396823 359.0
19638.0 335.0 0 80.64304394685779 358.0
19659.0 305.0 0 81.84672055403327 358.0
19681.0 292.0 0 83.05039716120875 358.0
19702.0 304.0 0 84.25407376838423 357.0
19723.0 307.0 0 85.4577503755597 357.0
19744.0 307.0 0 86.66142698273518 357.0
19766.0 56.0 0 87.86510358991066 357.0
19786.0 72.0 0 89.06878019708614 356.0
19806.0 120.0 0 90.27245680426162 356.0
19827.0 120.0 0 91.4761334114371 356.0
19849.0 91.0 0 92.67981001861259 355.0
19868.0 164.0 500 93.88348662578807 355.0
19890.0 52.0 0 95.08716323296355 355.0
19910.0 52.0 0 108.79757015217253 355.0
19931.0 52.0 0 122.5079770713815 354.0
19950.0 52.0 0 136.21838399059047 354.0
19971.0 52.0 0 149.92879090979946 354.0
19991.0 52.0 0 163.63919782900842 353.0
20011.0 52.0 0 177.34960474821742 353.0
20031.0 52.0 0 191.06001166742638 353.0
20052.0 52.0 0 204.77041858663534 353.0
20071.0 52.0 0 218.48082550584434 352.0
20112.0 559.0 500 232.1912324250533 352.0
20133.0 337.0 0 245.9016393442623 352.0
20154.0 313.0 0 240.49102415010057 352.0
20176.0 321.0 0 235.08040895593882 352.0
20197.0 323.0 0 229.6697937617771 352.0
20218.0 323.0 0 224.25917856761538 352.0
20239.0 323.0 0 218.84856337345366 352.0
20261.0 323.0 0 213.4379481792919 352.0
20281.0 323.0 0 208.0273329851302 352.0
20303.0 323.0 0 202.61671779096844 352.0
20324.0 79.0 0 197.20610259680672 351.0
20345.0 79.0 0 191.795487402645 351.0
20364.0 79.0 0 186.38487220848327 351.0
20384.0 79.0 0 180.97425701432155 351.0
20405.0 79.0 0 175.5636418201598 351.0
20424.0 53.0 0 170.15302662599805 351.0
20445.0 53.0 0 164.74241143183633 351.0
20465.0 53.0 0 159.3317962376746 351.0
20485.0 53.0 0 153.9211810435129 351.0
20505.0 53.0 0 148.51056584935117 351.0
20526.0 53.0 0 143.09995065518942 351.0
20545.0 53.0 0 137.6893354610277 351.0
20566.0 53.0 0 132.27872026686597 351.0
20606.0 542.0 500 126.86810507270422 351.0
20627.0 347.0 0 121.4574898785425 351.0
20649.0 330.0 0 120.52239100829999 351.0
20670.0 333.0 0 119.58729213805746 352.0
20691.0 328.0 0 118.65219326781495 352.0
20712.0 330.0 0 117.71709439757242 352.0
20734.0 561.0 0 116.78199552732991 352.0
20755.0 557.0 0 115.84689665708738 352.0
20776.0 562.0 0 114.91179778684487 353.0
20797.0 562.0 0 113.97669891660234 353.0
20819.0 559.0 0 113.04160004635983 353.0
20839.0 559.0 0 112.1065011761173 353.0
20861.0 562.0 0 111.17140230587479 354.0
20882.0 562.0 0 110.23630343563227 354.0
20904.0 562.0 0 109.30120456538975 354.0
20924.0 560.0 0 108.36610569514723 354.0
20946.0 563.0 0 107.43100682490471 354.0
20967.0 562.0 0 106.49590795466219 355.0
20989.0 560.0 0 105.56080908441967 355.0
21009.0 562.0 0 104.62571021417715 355.0
21031.0 563.0 0 103.69061134393463 355.0
21052.0 560.0 0 102.75551247369211 355.0
21074.0 560.0 0 101.8204136034496 355.0
21115.0 562.0 0 100.88531473320708 355.0
21136.0 351.0 0 99.95021586296455 355.0
21157.0 311.0 0 99.01511699272203 355.0
21178.0 315.0 0 98.08001812247952 355.0
21200.0 312.0 0 97.144919252237 355.0
21221.0 311.0 0 96.20982038199448 355.0
21242.0 562.0 500 95.27472151175195 355.0
21263.0 562.0 0 94.33962264150944 355.0
21285.0 560.0 0 94.59931629742951 355.0
21306.0 562.0 0 94.85900995334958 355.0
21327.0 562.0 0 95.11870360926964 355.0
21348.0 559.0 0 95.37839726518972 355.0
21370.0 563.0 0 95.6380909211098 355.0
21391.0 563.0 0 95.89778457702987 355.0
21412.0 564.0 0 96.15747823294993 355.0
21433.0 563.0 0 96.41717188887 355.0
21455.0 563.0 0 96.67686554479008 355.0
21476.0 558.0 0 96.93655920071015 355.0
21497.0 562.0 0 97.19625285663022 355.0
21518.0 563.0 0 97.45594651255028 355.0
21540.0 556.0 0 97.71564016847036 355.0
21560.0 556.0 0 97.97533382439043 355.0
21602.0 561.0 0 98.2350274803105 355.0
21622.0 350.0 0 98.49472113623057 355.0
21644.0 306.0 0 98.75441479215064 355.0
21665.0 300.0 0 99.01410844807071 355.0
21687.0 300.0 0 99.27380210399079 355.0
21707.0 307.0 0 99.53349575991086 355.0
21729.0 307.0 0 99.79318941583092 355.0
21750.0 146.0 0 100.052883071751 355.0
21772.0 109.0 0 100.31257672767107 355.0
21792.0 136.0 0 100.57227038359115 355.0
21814.0 63.0 0 100.8319640395112 355.0
21834.0 144.0 500 101.09165769543128 355.0
21855.0 121.0 0 101.35135135135135 355.0
21876.0 188.0 500 764.96138996139 355.0
21898.0 118.0 0 1428.5714285714287 355.0
21919.0 121.0 0 1268.6011904761906 355.0
21940.0 311.0 0 1108.6309523809525 355.0
21961.0 160.0 0 948.6607142857143 355.0
21983.0 118.0 0 788.6904761904763 355.0
22004.0 562.0 500 628.7202380952381 355.0
22025.0 562.0 0 468.75 355.0
22046.0 559.0 0 447.73706896551727 355.0
22068.0 559.0 0 426.7241379310345 355.0
22109.0 563.0 0 405.71120689655174 355.0
22130.0 357.0 0 384.69827586206895 355.0
22151.0 323.0 0 363.6853448275862 356.0
22172.0 304.0 0 342.6724137931035 356.0
22194.0 323.0 0 321.6594827586207 356.0
22215.0 320.0 0 300.6465517241379 356.0
22236.0 558.0 500 279.63362068965523 357.0
22257.0 561.0 0 258.62068965517244 357.0
22279.0 563.0 0 252.95582527539096 357.0
22300.0 558.0 0 247.2909608956095 357.0
22321.0 561.0 0 241.62609651582798 358.0
22342.0 562.0 0 235.9612321360465 358.0
22364.0 560.0 0 230.29636775626503 358.0
22385.0 559.0 0 224.63150337648355 358.0
22406.0 561.0 0 218.96663899670205 359.0
22427.0 557.0 0 213.30177461692057 359.0
22449.0 562.0 0 207.6369102371391 359.0
22470.0 557.0 0 201.9720458573576 359.0
22491.0 562.0 0 196.30718147757614 360.0
22512.0 562.0 0 190.64231709779466 360.0
22534.0 557.0 0 184.97745271801318 360.0
22555.0 562.0 0 179.31258833823168 360.0
22576.0 562.0 0 173.64772395845017 361.0
22618.0 561.0 0 167.9828595786687 361.0
22638.0 348.0 0 162.31799519888725 361.0
22660.0 308.0 0 156.65313081910574 361.0
22681.0 297.0 0 150.98826643932426 361.0
22702.0 308.0 0 145.3234020595428 361.0
22723.0 310.0 0 139.6585376797613 361.0
22745.0 296.0 0 133.99367329997983 361.0
22766.0 332.0 0 128.32880892019833 361.0
22787.0 246.0 0 122.66394454041685 361.0
22808.0 266.0 0 116.99908016063537 361.0
22830.0 436.0 0 111.3342157808539 361.0
22851.0 272.0 0 105.66935140107242 361.0
22872.0 563.0 500 100.00448702129091 361.0
22893.0 557.0 0 94.33962264150944 361.0
22915.0 562.0 0 98.86006289308176 361.0
22935.0 563.0 0 103.38050314465409 361.0
22957.0 557.0 0 107.90094339622641 361.0
22978.0 562.0 0 112.42138364779873 361.0
23000.0 563.0 0 116.94182389937106 361.0
23020.0 559.0 0 121.4622641509434 361.0
23042.0 563.0 0 125.98270440251572 361.0
23063.0 563.0 0 130.50314465408803 360.0
23104.0 563.0 0 135.02358490566036 360.0
23126.0 343.0 0 139.54402515723268 360.0
23147.0 311.0 0 144.06446540880503 360.0
23168.0 303.0 0 148.58490566037736 359.0
23189.0 312.0 0 153.10534591194968 359.0
23211.0 301.0 0 157.625786163522 359.0
23232.0 528.0 500 162.14622641509433 359.0
23253.0 562.0 0 166.66666666666666 359.0
23274.0 564.0 0 164.13690476190476 358.0
23296.0 564.0 0 161.60714285714286 358.0
23317.0 557.0 0 159.07738095238093 358.0
23338.0 564.0 0 156.54761904761904 358.0
23359.0 557.0 0 154.01785714285714 357.0
23381.0 562.0 0 151.48809523809524 357.0
23401.0 565.0 0 148.95833333333331 357.0
23423.0 557.0 0 146.42857142857142 357.0
23444.0 562.0 0 143.89880952380952 357.0
23466.0 564.0 0 141.36904761904762 356.0
23486.0 564.0 0 138.8392857142857 356.0
23508.0 563.0 0 136.3095238095238 356.0
23529.0 563.0 0 133.7797619047619 356.0
23551.0 562.0 0 131.25 356.0
23571.0 562.0 0 128.72023809523807 355.0
23613.0 561.0 0 126.19047619047618 354.0
23634.0 344.0 0 123.66071428571428 354.0
23655.0 305.0 0 121.13095238095238 353.0
23677.0 301.0 0 118.60119047619047 352.0
23698.0 295.0 0 116.07142857142856 352.0
23719.0 301.0 0 113.54166666666666 351.0
23740.0 199.0 0 111.01190476190476 351.0
23762.0 196.0 0 108.48214285714285 350.0
23783.0 197.0 0 105.95238095238095 350.0
23804.0 169.0 0 103.42261904761904 349.0
23825.0 148.0 0 100.89285714285714 349.0
23847.0 152.0 0 98.36309523809523 348.0
23868.0 195.0 0 95.83333333333333 347.0
23889.0 156.0 0 93.30357142857142 347.0
23910.0 127.0 0 90.77380952380952 346.0
23932.0 178.0 500 88.2440476190476 346.0
23953.0 168.0 0 85.71428571428571 345.0
23974.0 101.0 0 124.48979591836735 345.0
23995.0 116.0 0 163.26530612244898 344.0
24017.0 129.0 0 202.0408163265306 344.0
24037.0 230.0 0 240.81632653061223 343.0
24059.0 230.0 0 279.5918367346939 343.0
24100.0 531.0 500 318.3673469387755 342.0
24121.0 331.0 0 357.14285714285717 342.0
24143.0 320.0 0 347.11627369394364 341.0
24164.0 323.0 0 337.08969024503006 341.0
24185.0 320.0 0 327.06310679611653 341.0
24206.0 328.0 0 317.036523347203 340.0
24228.0 264.0 0 307.0099398982894 340.0
24249.0 243.0 0 296.9833564493759 340.0
24270.0 208.0 0 286.95677300046236 340.0
24291.0 203.0 0 276.9301895515488 339.0
24313.0 94.0 0 266.90360610263525 339.0
24332.0 94.0 0 256.8770226537217 339.0
24352.0 94.0 0 246.85043920480817 338.0
24373.0 94.0 0 236.8238557558946 338.0
24393.0 94.0 0 226.79727230698109 338.0
24413.0 94.0 0 216.7706888580675 338.0
24433.0 94.0 0 206.74410540915397 337.0
24454.0 94.0 0 196.71752196024045 337.0
24473.0 94.0 0 186.69093851132686 337.0
24494.0 94.0 0 176.66435506241334 336.0
24514.0 94.0 0 166.6377716134998 336.0
24534.0 94.0 0 156.61118816458622 336.0
24554.0 94.0 0 146.5846047156727 336.0
24575.0 94.0 0 136.55802126675917 335.0
24615.0 547.0 500 126.53143781784559 334.0
24636.0 347.0 0 116.50485436893204 334.0
24657.0 329.0 0 116.80932850765988 334.0
24678.0 333.0 0 117.11380264638773 333.0
24700.0 327.0 0 117.41827678511557 333.0
24721.0 326.0 0 117.7227509238434 332.0
24742.0 295.0 0 118.02722506257125 332.0
24763.0 317.0 0 118.33169920129909 331.0
24785.0 309.0 0 118.63617334002693 331.0
24806.0 251.0 0 118.94064747875477 331.0
24827.0 207.0 0 119.24512161748261 330.0
24848.0 200.0 0 119.54959575621045 330.0
24870.0 211.0 0 119.8540698949383 329.0
24891.0 221.0 0 120.15854403366615 329.0
24912.0 132.0 0 120.46301817239399 328.0
24933.0 160.0 0 120.76749231112183 328.0
24955.0 206.0 0 121.07196644984967 328.0
24975.0 190.0 0 121.37644058857751 327.0
24997.0 195.0 0 121.68091472730535 327.0
25018.0 160.0 0 121.98538886603319 326.0
25040.0 159.0 0 122.28986300476103 326.0
25060.0 159.0 0 122.59433714348887 326.0
25102.0 544.0 500 122.89881128221671 327.0
25123.0 344.0 0 123.20328542094455 328.0
25144.0 334.0 0 181.40956199776875 328.0
25166.0 327.0 0 239.61583857459294 329.0
25187.0 336.0 0 297.82211515141717 330.0
25208.0 336.0 0 356.02839172824133 330.0
25229.0 559.0 500 414.2346683050656 331.0
25251.0 558.0 0 472.4409448818898 332.0
25272.0 562.0 0 457.02517304069374 332.0
25292.0 559.0 0 441.6094011994977 333.0
25314.0 563.0 0 426.1936293583017 334.0
25336.0 561.0 0 410.77785751710564 334.0
25357.0 562.0 0 395.3620856759096 335.0
25377.0 561.0 0 379.9463138347136 336.0
25399.0 562.0 0 364.53054199351755 336.0
25420.0 559.0 0 349.11477015232157 337.0
25442.0 562.0 0 333.6989983111255 338.0
25462.0 562.0 0 318.2832264699295 338.0
25484.0 563.0 0 302.86745462873347 339.0
25505.0 562.0 0 287.45168278753744 340.0
25526.0 562.0 0 272.03591094634146 340.0
25547.0 562.0 0 256.62013910514537 341.0
25569.0 562.0 0 241.20436726394934 341.0
25610.0 562.0 0 225.78859542275333 341.0
25631.0 337.0 0 210.37282358155733 341.0
25653.0 310.0 0 194.95705174036124 341.0
25673.0 311.0 0 179.54127989916526 341.0
25695.0 314.0 0 164.12550805796923 341.0
25716.0 313.0 0 148.7097362167732 341.0
25738.0 481.0 500 133.29396437557716 341.0
25758.0 563.0 0 117.87819253438114 341.0
25780.0 564.0 0 116.60275568566557 341.0
25801.0 563.0 0 115.32731883695001 341.0
25823.0 563.0 0 114.05188198823444 341.0
25843.0 562.0 0 112.77644513951888 341.0
25865.0 562.0 0 111.50100829080331 341.0
25886.0 562.0 0 110.22557144208776 341.0
25908.0 562.0 0 108.95013459337218 341.0
25928.0 563.0 0 107.67469774465661 341.0
25950.0 558.0 0 106.39926089594105 341.0
25971.0 563.0 0 105.12382404722548 341.0
25993.0 556.0 0 103.84838719850993 341.0
26013.0 562.0 0 102.57295034979435 341.0
26035.0 563.0 0 101.2975135010788 341.0
26056.0 565.0 0 100.02207665236322 341.0
26078.0 565.0 0 98.74663980364767 340.0
26119.0 563.0 0 97.4712029549321 339.0
26140.0 342.0 0 96.19576610621652 339.0
26161.0 303.0 0 94.92032925750097 338.0
26182.0 304.0 0 93.6448924087854 338.0
26204.0 303.0 0 92.36945556006984 337.0
26224.0 307.0 0 91.09401871135427 337.0
26246.0 333.0 0 89.8185818626387 336.0
26267.0 554.0 0 88.54314501392314 336.0
26289.0 557.0 0 87.26770816520757 335.0
26309.0 564.0 0 85.99227131649201 335.0
26331.0 563.0 0 84.71683446777644 334.0
26352.0 564.0 0 83.44139761906087 333.0
26374.0 564.0 0 82.16596077034531 333.0
26394.0 565.0 0 80.89052392162975 332.0
26416.0 558.0 0 79.61508707291418 332.0
26437.0 562.0 0 78.3396502241986 331.0
26459.0 565.0 0 77.06421337548305 331.0
26479.0 562.0 0 75.78877652676748 330.0
26501.0 560.0 0 74.51333967805192 330.0
26522.0 561.0 0 73.23790282933635 329.0
26544.0 561.0 0 71.96246598062078 329.0
26564.0 561.0 0 70.6870291319052 329.0
26606.0 563.0 0 69.41159228318966 329.0
26627.0 343.0 0 68.13615543447409 329.0
26648.0 298.0 0 66.86071858575852 329.0
26670.0 303.0 0 65.58528173704295 330.0
26691.0 300.0 0 64.30984488832739 330.0
26712.0 303.0 0 63.03440803961182 330.0
26733.0 256.0 0 61.75897119089626 330.0
26755.0 227.0 0 60.48353434218069 330.0
26775.0 174.0 0 59.208097493465125 331.0
26797.0 558.0 500 57.93266064474956 331.0
26818.0 558.0 0 56.657223796033996 331.0
26840.0 558.0 0 59.31900504552735 331.0
26860.0 558.0 0 61.98078629502071 332.0
26882.0 561.0 0 64.64256754451407 332.0
26903.0 556.0 0 67.30434879400741 332.0
26925.0 559.0 0 69.96613004350077 332.0
26945.0 555.0 0 72.62791129299413 332.0
26967.0 558.0 0 75.28969254248747 333.0
26988.0 562.0 0 77.95147379198083 333.0
27010.0 561.0 0 80.61325504147419 333.0
27030.0 558.0 0 83.27503629096753 333.0
27052.0 556.0 0 85.9368175404609 333.0
27073.0 556.0 0 88.59859878995425 334.0
27114.0 561.0 0 91.2603800394476 335.0
27136.0 332.0 0 93.92216128894096 335.0
27157.0 308.0 0 96.58394253843431 336.0
27178.0 309.0 0 99.24572378792766 336.0
27199.0 298.0 0 101.907505037421 337.0
27221.0 313.0 0 104.56928628691438 337.0
27242.0 284.0 0 107.23106753640772 338.0
27263.0 271.0 0 109.89284878590108 338.0
27284.0 224.0 0 112.55463003539444 338.0
27306.0 557.0 500 115.21641128488778 339.0
27326.0 562.0 0 117.87819253438114 339.0
27348.0 558.0 0 117.69249909938684 340.0
27369.0 561.0 0 117.50680566439254 340.0
27391.0 562.0 0 117.32111222939824 341.0
27411.0 563.0 0 117.13541879440395 341.0
27433.0 562.0 0 116.94972535940964 342.0
27454.0 557.0 0 116.76403192441535 342.0
27476.0 563.0 0 116.57833848942104 343.0
27496.0 563.0 0 116.39264505442675 343.0
27518.0 563.0 0 116.20695161943244 344.0
27539.0 563.0 0 116.02125818443815 344.0
27561.0 563.0 0 115.83556474944385 344.0
27602.0 562.0 0 115.64987131444954 343.0
27623.0 353.0 0 115.46417787945525 343.0
27644.0 310.0 0 115.27848444446094 342.0
27665.0 307.0 0 115.09279100946665 341.0
27687.0 307.0 0 114.90709757447235 341.0
27708.0 317.0 0 114.72140413947805 340.0
27729.0 317.0 0 114.53571070448375 339.0
27750.0 317.0 0 114.35001726948946 339.0
27772.0 130.0 0 114.16432383449515 338.0
27793.0 130.0 0 113.97863039950086 337.0
27814.0 130.0 0 113.79293696450655 337.0
27835.0 425.0 500 113.60724352951226 336.0
27857.0 73.0 0 113.42155009451795 336.0
27876.0 74.0 0 122.55711484810367 335.0
27897.0 283.0 0 131.69267960168938 334.0
27918.0 122.0 0 140.82824435527507 334.0
27940.0 124.0 0 149.9638091088608 333.0
27960.0 124.0 0 159.0993738624465 332.0
27982.0 56.0 0 168.2349386160322 332.0
28002.0 87.0 0 177.37050336961792 331.0
28021.0 87.0 0 186.50606812320362 331.0
28042.0 108.0 0 195.64163287678934 330.0
28063.0 108.0 0 204.77719763037504 329.0
28104.0 545.0 500 213.91276238396074 328.0
28126.0 333.0 0 223.04832713754647 327.0
28147.0 320.0 0 248.71064665480972 327.0
28168.0 320.0 0 274.372966172073 326.0
28189.0 322.0 0 300.03528568933626 325.0
28211.0 322.0 0 325.6976052065995 325.0
28232.0 296.0 0 351.3599247238628 324.0
28253.0 402.0 500 377.02224424112603 323.0
28274.0 193.0 0 402.6845637583893 323.0
28296.0 362.0 500 899.0167004838459 322.0
28317.0 213.0 0 1395.3488372093022 321.0
28338.0 559.0 500 1411.9601328903655 321.0
28359.0 560.0 0 1428.5714285714287 320.0
28381.0 560.0 0 1360.831323591999 319.0
28402.0 560.0 0 1293.0912186125693 319.0
28423.0 561.0 0 1225.3511136331394 318.0
28444.0 558.0 0 1157.6110086537099 317.0
28466.0 561.0 0 1089.8709036742803 316.0
28486.0 559.0 0 1022.1307986948505 316.0
28508.0 560.0 0 954.3906937154208 315.0
28529.0 556.0 0 886.650588735991 314.0
28551.0 558.0 0 818.9104837565613 314.0
28571.0 558.0 0 751.1703787771316 313.0
28613.0 556.0 0 683.4302737977018 313.0
28634.0 338.0 0 615.6901688182722 313.0
28655.0 305.0 0 547.9500638388424 313.0
28677.0 310.0 0 480.20995885941284 313.0
28698.0 305.0 0 412.469853879983 312.0
28719.0 308.0 0 344.72974890055343 312.0
28740.0 232.0 0 276.9896439211236 312.0
28762.0 373.0 500 209.24953894169403 312.0
28783.0 382.0 0 141.50943396226415 312.0
28804.0 179.0 0 411.7999401018269 312.0
28825.0 304.0 500 682.0904462413896 311.0
28847.0 428.0 0 952.3809523809524 311.0
28868.0 560.0 0 909.7035040431267 311.0
28889.0 557.0 0 867.026055705301 311.0
28910.0 560.0 0 824.3486073674753 311.0
28932.0 561.0 0 781.6711590296496 311.0
28953.0 557.0 0 738.9937106918239 310.0
28974.0 561.0 0 696.3162623539982 310.0
28995.0 561.0 0 653.6388140161725 310.0
29017.0 561.0 0 610.9613656783467 310.0
29037.0 561.0 0 568.2839173405212 310.0
29059.0 561.0 0 525.6064690026953 310.0
29100.0 559.0 0 482.9290206648697 310.0
29121.0 343.0 0 440.2515723270441 310.0
29143.0 309.0 0 397.57412398921826 310.0
29164.0 309.0 0 354.8966756513927 310.0
29185.0 309.0 0 312.2192273135669 310.0
29206.0 303.0 0 269.5417789757412 310.0
29228.0 218.0 0 226.8643306379155 311.0
29249.0 274.0 500 184.1868823000898 311.0
29270.0 244.0 0 141.50943396226415 311.0
29291.0 219.0 0 282.60266370699225 311.0
29313.0 114.0 0 423.69589345172034 311.0
29334.0 243.0 500 564.7891231964484 311.0
29355.0 561.0 0 705.8823529411765 311.0
29376.0 562.0 0 681.214421252372 311.0
29398.0 562.0 0 656.5464895635673 312.0
29419.0 559.0 0 631.8785578747628 312.0
29440.0 561.0 0 607.2106261859583 312.0
29461.0 562.0 0 582.5426944971537 312.0
29483.0 562.0 0 557.8747628083491 312.0
29503.0 562.0 0 533.2068311195446 312.0
29525.0 557.0 0 508.53889943074006 312.0
29546.0 562.0 0 483.8709677419355 312.0
29568.0 562.0 0 459.2030360531309 313.0
29609.0 561.0 0 434.5351043643264 313.0
29630.0 345.0 0 409.86717267552183 313.0
29651.0 305.0 0 385.1992409867173 314.0
29672.0 313.0 0 360.5313092979127 314.0
29694.0 313.0 0 335.86337760910817 314.0
29715.0 315.0 0 311.19544592030365 314.0
29736.0 257.0 0 286.527514231499 315.0
29757.0 204.0 0 261.8595825426945 315.0
29779.0 151.0 0 237.19165085389 315.0
29800.0 53.0 0 212.52371916508537 315.0
29820.0 56.0 0 187.85578747628085 316.0
29840.0 56.0 0 163.18785578747634 316.0
29861.0 357.0 500 138.5199240986717 316.0
29881.0 154.0 0 113.85199240986718 316.0
29903.0 115.0 0 206.46620931250914 317.0
29924.0 138.0 0 299.0804262151511 317.0
29946.0 61.0 0 391.694643117793 317.0
29965.0 111.0 500 484.30886002043496 317.0
29987.0 65.0 0 576.9230769230769 318.0
30007.0 126.0 500 1002.7472527472528 318.0
30027.0 123.0 0 1428.5714285714287 318.0
30049.0 110.0 0 1215.6593406593406 318.0
30070.0 110.0 0 1002.7472527472528 319.0
30111.0 542.0 500 789.8351648351648 319.0
30133.0 328.0 0 576.9230769230769 319.0
30154.0 330.0 0 567.176172150877 320.0
30175.0 328.0 0 557.4292673786772 320.0
30196.0 329.0 0 547.6823626064772 320.0
30218.0 330.0 0 537.9354578342774 320.0
30239.0 556.0 0 528.1885530620775 321.0
30260.0 563.0 0 518.4416482898777 321.0
30281.0 563.0 0 508.69474351767775 321.0
30303.0 563.0 0 498.94783874547784 321.0
30324.0 563.0 0 489.200933973278 322.0
30345.0 562.0 0 479.4540292010781 322.0
30366.0 563.0 0 469.7071244288782 322.0
30388.0 559.0 0 459.9602196566783 322.0
30409.0 563.0 0 450.21331488447845 323.0
30430.0 558.0 0 440.4664101122786 323.0
30451.0 564.0 0 430.7195053400786 323.0
30473.0 564.0 0 420.97260056787877 323.0
30493.0 564.0 0 411.2256957956789 324.0
30515.0 564.0 0 401.47879102347906 324.0
30536.0 564.0 0 391.73188625127915 324.0
30558.0 564.0 0 381.98498147907924 324.0
30578.0 564.0 0 372.2380767068794 325.0
30620.0 563.0 0 362.4911719346795 325.0
30641.0 337.0 0 352.7442671624796 325.0
30662.0 312.0 0 342.9973623902797 325.0
30684.0 304.0 0 333.25045761807985 325.0
30705.0 312.0 0 323.50355284588 325.0
30726.0 303.0 0 313.7566480736801 325.0
30747.0 327.0 0 304.0097433014802 325.0
30769.0 563.0 0 294.2628385292803 325.0
30790.0 564.0 0 284.5159337570804 325.0
30811.0 564.0 0 274.76902898488055 325.0
30832.0 564.0 0 265.0221242126807 325.0
30854.0 564.0 0 255.27521944048078 325.0
30875.0 559.0 0 245.52831466828087 325.0
30896.0 559.0 0 235.78140989608102 325.0
30917.0 565.0 0 226.03450512388116 325.0
30939.0 555.0 0 216.28760035168125 325.0
30960.0 564.0 0 206.5406955794814 325.0
30981.0 556.0 0 196.79379080728148 325.0
31002.0 564.0 0 187.04688603508163 325.0
31024.0 564.0 0 177.29998126288172 325.0
31044.0 564.0 0 167.55307649068186 325.0
31066.0 564.0 0 157.80617171848195 326.0
31108.0 556.0 0 148.0592669462821 327.0
31128.0 327.0 0 138.31236217408218 327.0
31150.0 304.0 0 128.56545740188233 328.0
31171.0 301.0 0 118.81855262968247 329.0
31192.0 302.0 0 109.07164785748256 329.0
31213.0 306.0 0 99.32474308528265 330.0
31235.0 420.0 0 89.5778383130828 330.0
31256.0 106.0 0 79.83093354088294 331.0
31277.0 70.0 0 70.08402876868303 332.0
31297.0 563.0 500 60.337123996483115 332.0
31319.0 564.0 0 50.5902192242833 333.0
31340.0 557.0 0 51.20776498807835 333.0
31361.0 563.0 0 51.8253107518734 334.0
31382.0 564.0 0 52.44285651566845 335.0
31404.0 564.0 0 53.0604022794635 335.0
31424.0 564.0 0 53.67794804325855 336.0
31446.0 564.0 0 54.295493807053596 336.0
31467.0 564.0 0 54.913039570848646 337.0
31489.0 559.0 0 55.530585334643696 338.0
31509.0 564.0 0 56.148131098438746 338.0
31531.0 564.0 0 56.765676862233796 339.0
31552.0 559.0 0 57.38322262602885 339.0
31574.0 559.0 0 58.0007683898239 340.0
31615.0 563.0 0 58.61831415361895 340.0
31636.0 335.0 0 59.23585991741399 340.0
31657.0 307.0 0 59.85340568120904 340.0
31678.0 299.0 0 60.47095144500409 341.0
31700.0 301.0 0 61.08849720879914 341.0
31721.0 309.0 0 61.70604297259419 341.0
31742.0 309.0 0 62.32358873638924 341.0
31763.0 309.0 0 62.94113450018429 342.0
31785.0 309.0 0 63.55868026397934 342.0
31806.0 309.0 0 64.17622602777439 342.0
31827.0 309.0 0 64.79377179156944 342.0
31848.0 309.0 0 65.41131755536449 342.0
31870.0 309.0 0 66.02886331915954 343.0
31891.0 309.0 0 66.64640908295459 343.0
31912.0 309.0 0 67.26395484674964 343.0
31933.0 68.0 0 67.88150061054469 343.0
31954.0 78.0 0 68.49904637433974 343.0
31973.0 78.0 0 69.11659213813479 344.0
31994.0 78.0 0 69.73413790192983 344.0
32014.0 78.0 0 70.35168366572488 344.0
32033.0 78.0 0 70.96922942951993 344.0
32054.0 78.0 0 71.58677519331498 344.0
32074.0 78.0 0 72.20432095711003 345.0
32114.0 528.0 500 72.82186672090508 346.0
32136.0 337.0 0 73.43941248470013 346.0
32156.0 326.0 0 75.68993099321972 347.0
32178.0 318.0 0 77.94044950173931 348.0
32199.0 323.0 0 80.1909680102589 348.0
32221.0 327.0 0 82.44148651877849 349.0
32241.0 327.0 0 84.69200502729808 349.0
32263.0 327.0 0 86.94252353581768 350.0
32284.0 327.0 0 89.19304204433728 350.0
32306.0 327.0 0 91.44356055285687 351.0
32326.0 327.0 0 93.69407906137646 351.0
32348.0 327.0 0 95.94459756989605 352.0
32369.0 327.0 0 98.19511607841564 353.0
32391.0 327.0 0 100.44563458693523 353.0
32411.0 327.0 0 102.69615309545482 354.0
32433.0 327.0 0 104.94667160397441 354.0
32454.0 327.0 0 107.197190112494 355.0
32476.0 327.0 0 109.44770862101359 355.0
32496.0 327.0 0 111.6982271295332 356.0
32518.0 327.0 0 113.94874563805278 356.0
32539.0 327.0 0 116.19926414657238 357.0
32561.0 327.0 0 118.44978265509195 357.0
32602.0 483.0 500 120.70030116361156 357.0
32623.0 338.0 0 122.95081967213115 356.0
32644.0 330.0 0 121.96422667107522 356.0
32665.0 322.0 0 120.9776336700193 355.0
32687.0 331.0 0 119.99104066896338 355.0
32707.0 323.0 0 119.00444766790746 355.0
32729.0 327.0 0 118.01785466685155 354.0
32750.0 562.0 0 117.03126166579563 354.0
32772.0 562.0 0 116.0446686647397 353.0
32792.0 561.0 0 115.05807566368378 353.0
32814.0 559.0 0 114.07148266262786 352.0
32835.0 561.0 0 113.08488966157194 352.0
32857.0 561.0 0 112.09829666051601 352.0
32877.0 561.0 0 111.11170365946009 351.0
32899.0 562.0 0 110.12511065840417 351.0
32920.0 562.0 0 109.13851765734825 350.0
32942.0 559.0 0 108.15192465629232 350.0
32962.0 557.0 0 107.16533165523641 349.0
32984.0 562.0 0 106.17873865418049 349.0
33005.0 564.0 0 105.19214565312457 349.0
33027.0 561.0 0 104.20555265206865 348.0
33047.0 561.0 0 103.21895965101272 348.0
33069.0 561.0 0 102.2323666499568 348.0
33110.0 560.0 0 101.24577364890088 348.0
33131.0 337.0 0 100.25918064784496 348.0
33153.0 310.0 0 99.27258764678905 349.0
33174.0 304.0 0 98.28599464573313 349.0
33195.0 306.0 0 97.2994016446772 349.0
33216.0 305.0 0 96.31280864362128 349.0
33238.0 559.0 500 95.32621564256536 350.0
33258.0 557.0 0 94.33962264150944 350.0
33280.0 562.0 0 94.46034575098554 350.0
33301.0 560.0 0 94.58106886046164 350.0
33323.0 559.0 0 94.70179196993776 351.0
33343.0 557.0 0 94.82251507941386 351.0
33365.0 558.0 0 94.94323818888996 351.0
33386.0 560.0 0 95.06396129836607 351.0
33408.0 559.0 0 95.18468440784217 352.0
33428.0 560.0 0 95.30540751731827 352.0
33450.0 558.0 0 95.42613062679439 352.0
33471.0 560.0 0 95.54685373627049 352.0
33493.0 560.0 0 95.6675768457466 353.0
33513.0 559.0 0 95.7882999552227 353.0
33535.0 559.0 0 95.9090230646988 353.0
33556.0 557.0 0 96.0297461741749 353.0
33578.0 557.0 0 96.15046928365102 354.0
33619.0 560.0 0 96.27119239312712 354.0
33640.0 342.0 0 96.39191550260323 355.0
33661.0 303.0 0 96.51263861207933 355.0
33682.0 299.0 0 96.63336172155543 355.0
33704.0 300.0 0 96.75408483103155 356.0
33725.0 305.0 0 96.87480794050765 356.0
33746.0 352.0 0 96.99553104998375 356.0
33767.0 212.0 0 97.11625415945986 356.0
33789.0 198.0 0 97.23697726893596 357.0
33810.0 237.0 0 97.35770037841206 357.0
33831.0 157.0 0 97.47842348788818 357.0
33852.0 266.0 500 97.59914659736428 358.0
33874.0 174.0 0 97.71986970684038 358.0
33894.0 204.0 0 141.28625457134737 358.0
33916.0 202.0 0 184.85263943585437 358.0
33937.0 166.0 0 228.41902430036134 359.0
33959.0 176.0 0 271.9854091648683 359.0
33979.0 149.0 0 315.55179402937534 359.0
34001.0 203.0 500 359.11817889388226 360.0
34022.0 559.0 0 402.6845637583893 360.0
34044.0 560.0 0 387.3093349603417 360.0
34064.0 560.0 0 371.9341061622941 360.0
34106.0 558.0 0 356.55887736424654 360.0
34127.0 349.0 0 341.18364856619894 360.0
34148.0 318.0 0 325.80841976815134 359.0
34170.0 317.0 0 310.43319097010374 359.0
34191.0 319.0 0 295.05796217205614 359.0
34212.0 318.0 0 279.68273337400854 359.0
34233.0 347.0 0 264.30750457596093 358.0
34255.0 263.0 0 248.93227577791336 358.0
34276.0 559.0 500 233.5570469798658 358.0
34297.0 559.0 0 218.1818181818182 358.0
34318.0 562.0 0 214.62317783019668 357.0
34340.0 559.0 0 211.0645374785752 357.0
34361.0 557.0 0 207.5058971269537 357.0
34382.0 561.0 0 203.9472567753322 357.0
34403.0 556.0 0 200.3886164237107 356.0
34425.0 560.0 0 196.8299760720892 356.0
34445.0 555.0 0 193.2713357204677 356.0
34467.0 558.0 0 189.7126953688462 356.0
34488.0 556.0 0 186.15405501722472 355.0
34510.0 557.0 0 182.59541466560322 355.0
34530.0 558.0 0 179.0367743139817 355.0
34552.0 559.0 0 175.47813396236023 355.0
34573.0 559.0 0 171.9194936107387 354.0
34614.0 559.0 0 168.36085325911722 354.0
34635.0 332.0 0 164.80221290749571 353.0
34657.0 303.0 0 161.2435725558742 353.0
34677.0 305.0 0 157.68493220425273 352.0
34699.0 302.0 0 154.12629185263123 352.0
34720.0 303.0 0 150.56765150100972 352.0
34742.0 303.0 0 147.00901114938824 351.0
34762.0 341.0 0 143.4503707977667 351.0
34784.0 369.0 0 139.89173044614523 350.0
34805.0 389.0 0 136.33309009452375 350.0
34827.0 559.0 0 132.77444974290225 350.0
34847.0 559.0 0 129.21580939128074 349.0
34869.0 558.0 0 125.65716903965924 349.0
34890.0 562.0 0 122.09852868803775 349.0
34912.0 562.0 0 118.53988833641624 348.0
34932.0 561.0 0 114.98124798479475 348.0
34954.0 561.0 0 111.42260763317326 347.0
34975.0 562.0 0 107.86396728155174 347.0
34997.0 561.0 0 104.30532692993025 347.0
35017.0 561.0 0 100.74668657830875 346.0
35039.0 557.0 0 97.18804622668726 346.0
35060.0 561.0 0 93.62940587506577 346.0
35081.0 561.0 0 90.07076552344427 345.0
35123.0 561.0 0 86.51212517182276 343.0
35143.0 348.0 0 82.95348482020125 342.0
35165.0 302.0 0 79.39484446857978 342.0
35186.0 310.0 0 75.83620411695827 341.0
35208.0 314.0 0 72.27756376533677 340.0
35228.0 304.0 0 68.71892341371526 339.0
35250.0 358.0 500 65.16028306209378 338.0
35271.0 381.0 0 61.60164271047228 338.0
35293.0 556.0 0 64.04844922455527 337.0
35313.0 562.0 0 66.49525573863826 336.0
35335.0 563.0 0 68.94206225272126 335.0
35356.0 557.0 0 71.38886876680425 334.0
35378.0 563.0 0 73.83567528088724 333.0
35398.0 564.0 0 76.28248179497024 333.0
35420.0 563.0 0 78.72928830905323 332.0
35441.0 563.0 0 81.17609482313622 331.0
35463.0 563.0 0 83.62290133721922 330.0
35483.0 563.0 0 86.06970785130221 329.0
35505.0 558.0 0 88.5165143653852 329.0
35526.0 564.0 0 90.9633208794682 328.0
35548.0 563.0 0 93.41012739355119 327.0
35568.0 563.0 0 95.8569339076342 326.0
35610.0 563.0 0 98.30374042171718 325.0
35631.0 337.0 0 100.75054693580017 324.0
35652.0 306.0 0 103.19735344988317 324.0
35674.0 299.0 0 105.64415996396617 323.0
35694.0 308.0 0 108.09096647804917 322.0
35716.0 307.0 0 110.53777299213216 322.0
35737.0 243.0 0 112.98457950621514 321.0
35759.0 376.0 500 115.43138602029815 320.0
35779.0 303.0 0 117.87819253438114 320.0
35801.0 380.0 500 773.2248105529048 319.0
35822.0 429.0 0 1428.5714285714287 318.0
35844.0 361.0 0 1282.4048538334255 317.0
35864.0 305.0 0 1136.238279095422 317.0
35886.0 311.0 0 990.0717043574188 316.0
35907.0 311.0 0 843.9051296194154 315.0
35929.0 287.0 0 697.738554881412 315.0
35949.0 354.0 500 551.5719801434088 314.0
35971.0 564.0 0 405.4054054054054 313.0
35992.0 561.0 0 390.4553792019166 313.0
36014.0 560.0 0 375.5053529984278 312.0
36034.0 565.0 0 360.555326794939 311.0
36056.0 561.0 0 345.6053005914502 311.0
36077.0 561.0 0 330.6552743879614 311.0
36118.0 564.0 0 315.70524818447257 311.0
36140.0 352.0 0 300.7552219809838 311.0
36161.0 312.0 0 285.805195777495 312.0
36182.0 310.0 0 270.85516957400614 312.0
36203.0 307.0 0 255.90514337051735 312.0
36225.0 313.0 0 240.95511716702853 312.0
36245.0 349.0 0 226.00509096353971 312.0
36267.0 314.0 0 211.05506476005093 313.0
36288.0 296.0 0 196.1050385565621 313.0
36310.0 389.0 500 181.15501235307332 313.0
36330.0 555.0 0 166.2049861495845 313.0
36352.0 559.0 0 164.25036338919176 313.0
36373.0 557.0 0 162.29574062879905 314.0
36395.0 559.0 0 160.34111786840631 314.0
36415.0 556.0 0 158.3864951080136 314.0
36437.0 556.0 0 156.43187234762087 314.0
36458.0 561.0 0 154.47724958722816 314.0
36480.0 558.0 0 152.52262682683542 315.0
36500.0 555.0 0 150.5680040664427 315.0
36522.0 556.0 0 148.61338130604997 315.0
36543.0 555.0 0 146.65875854565726 315.0
36565.0 555.0 0 144.70413578526453 315.0
36606.0 557.0 0 142.74951302487182 314.0
36627.0 336.0 0 140.79489026447908 313.0
36648.0 307.0 0 138.84026750408634 312.0
36669.0 302.0 0 136.88564474369363 311.0
36691.0 298.0 0 134.9310219833009 311.0
36712.0 315.0 0 132.97639922290819 310.0
36733.0 298.0 0 131.02177646251545 309.0
36754.0 312.0 0 129.0671537021227 308.0
36776.0 290.0 0 127.11253094173 307.0
36797.0 374.0 500 125.15790818133728 307.0
36818.0 559.0 0 123.20328542094455 306.0
36839.0 562.0 0 121.81690913709225 305.0
36861.0 562.0 0 120.43053285323995 304.0
36881.0 559.0 0 119.04415656938764 303.0
36903.0 562.0 0 117.65778028553534 303.0
36924.0 559.0 0 116.27140400168304 302.0
36946.0 559.0 0 114.88502771783074 301.0
36966.0 562.0 0 113.49865143397844 300.0
36988.0 562.0 0 112.11227515012612 299.0
37009.0 562.0 0 110.72589886627382 298.0
37031.0 562.0 0 109.33952258242152 298.0
37051.0 562.0 0 107.95314629856922 297.0
37073.0 562.0 0 106.56677001471692 296.0
37114.0 558.0 0 105.18039373086461 295.0
37135.0 343.0 0 103.79401744701231 295.0
37157.0 302.0 0 102.40764116316001 295.0
37178.0 310.0 0 101.02126487930771 294.0
37199.0 302.0 0 99.6348885954554 294.0
37220.0 313.0 0 98.2485123116031 293.0
37242.0 537.0 0 96.8621360277508 293.0
37263.0 557.0 0 95.4757597438985 292.0
37284.0 562.0 0 94.08938346004618 292.0
37305.0 561.0 0 92.70300717619389 292.0
37327.0 563.0 0 91.31663089234158 291.0
37348.0 562.0 0 89.93025460848928 291.0
37369.0 557.0 0 88.54387832463698 290.0
37390.0 559.0 0 87.15750204078468 290.0
37412.0 559.0 0 85.77112575693238 289.0
37432.0 563.0 0 84.38474947308006 289.0
37454.0 563.0 0 82.99837318922776 289.0
37475.0 563.0 0 81.61199690537546 288.0
37497.0 560.0 0 80.22562062152315 288.0
37517.0 563.0 0 78.83924433767086 287.0
37539.0 558.0 0 77.45286805381855 287.0
37560.0 557.0 0 76.06649176996623 287.0
37582.0 557.0 0 74.68011548611395 286.0
37622.0 560.0 0 73.29373920226163 286.0
37644.0 322.0 0 71.90736291840933 286.0
37664.0 298.0 0 70.52098663455703 286.0
37686.0 297.0 0 69.13461035070473 286.0
37707.0 299.0 0 67.74823406685243 286.0
37729.0 309.0 0 66.36185778300012 286.0
37749.0 239.0 0 64.97548149914782 286.0
37771.0 209.0 0 63.58910521529552 286.0
37792.0 236.0 0 62.20272893144322 286.0
37814.0 311.0 0 60.81635264759091 286.0
37834.0 300.0 0 59.429976363738604 286.0
37856.0 417.0 500 58.0436000798863 286.0
37877.0 563.0 0 56.657223796033996 286.0
37899.0 556.0 0 56.803778512410176 286.0
37919.0 557.0 0 56.95033322878636 286.0
37941.0 557.0 0 57.09688794516254 286.0
37962.0 563.0 0 57.24344266153873 286.0
37984.0 559.0 0 57.38999737791491 286.0
38004.0 563.0 0 57.536552094291096 286.0
38026.0 563.0 0 57.683106810667276 286.0
38047.0 559.0 0 57.82966152704346 286.0
38068.0 559.0 0 57.97621624341964 286.0
38110.0 560.0 0 58.12277095979582 286.0
38130.0 340.0 0 58.26932567617201 286.0
38152.0 299.0 0 58.41588039254819 286.0
38173.0 299.0 0 58.562435108924376 286.0
38195.0 300.0 0 58.708989825300556 286.0
38215.0 315.0 0 58.85554454167674 286.0
38237.0 407.0 0 59.00209925805292 286.0
38258.0 508.0 0 59.14865397442911 286.0
38280.0 562.0 0 59.29520869080529 286.0
38300.0 559.0 0 59.44176340718147 286.0
38322.0 559.0 0 59.588318123557656 286.0
38343.0 564.0 0 59.734872839933836 286.0
38364.0 563.0 0 59.88142755631002 286.0
38385.0 562.0 0 60.0279822726862 286.0
38407.0 562.0 0 60.17453698906239 286.0
38428.0 563.0 0 60.32109170543857 286.0
38449.0 563.0 0 60.46764642181475 286.0
38470.0 559.0 0 60.614201138190936 286.0
38492.0 559.0 0 60.760755854567115 286.0
38513.0 563.0 0 60.9073105709433 286.0
38534.0 559.0 0 61.05386528731948 286.0
38555.0 563.0 0 61.20042000369567 286.0
38577.0 563.0 0 61.34697472007185 286.0
38618.0 559.0 0 61.493529436448036 286.0
38639.0 337.0 0 61.640084152824215 286.0
38661.0 298.0 0 61.7866388692004 286.0
38681.0 299.0 0 61.93319358557658 287.0
38703.0 301.0 0 62.07974830195276 287.0
38724.0 304.0 0 62.22630301832895 287.0
38745.0 329.0 0 62.37285773470513 287.0
38766.0 348.0 0 62.519412451081315 288.0
38788.0 284.0 0 62.665967167457495 288.0
38809.0 342.0 500 62.81252188383368 288.0
38830.0 428.0 0 62.95907660020986 288.0
38851.0 560.0 0 66.09223318147924 288.0
38873.0 561.0 0 69.22538976274863 289.0
38894.0 559.0 0 72.35854634401802 289.0
38915.0 560.0 0 75.4917029252874 289.0
38936.0 561.0 0 78.62485950655679 289.0
38958.0 560.0 0 81.75801608782618 289.0
38979.0 560.0 0 84.89117266909557 290.0
39000.0 559.0 0 88.02432925036494 290.0
39021.0 561.0 0 91.15748583163433 290.0
39043.0 557.0 0 94.29064241290371 290.0
39064.0 557.0 0 97.4237989941731 291.0
39105.0 558.0 0 100.55695557544249 291.0
39127.0 335.0 0 103.69011215671188 291.0
39147.0 308.0 0 106.82326873798127 291.0
39169.0 300.0 0 109.95642531925066 291.0
39190.0 300.0 0 113.08958190052002 291.0
39212.0 307.0 0 116.2227384817894 291.0
39232.0 312.0 0 119.3558950630588 291.0
39254.0 282.0 0 122.48905164432819 291.0
39275.0 349.0 500 125.62220822559757 291.0
39297.0 324.0 0 128.75536480686696 291.0
39317.0 333.0 0 128.49152184619714 291.0
39339.0 442.0 0 128.22767888552735 291.0
39360.0 555.0 0 127.96383592485753 291.0
39381.0 560.0 0 127.69999296418773 291.0
39402.0 560.0 0 127.43615000351791 291.0
39424.0 562.0 0 127.1723070428481 291.0
39445.0 555.0 0 126.9084640821783 291.0
39466.0 559.0 0 126.64462112150848 291.0
39487.0 560.0 0 126.38077816083867 291.0
39509.0 561.0 0 126.11693520016887 291.0
39530.0 557.0 0 125.85309223949906 291.0
39551.0 561.0 0 125.58924927882924 291.0
39572.0 561.0 0 125.32540631815944 291.0
39613.0 557.0 0 125.06156335748963 291.0
39635.0 340.0 0 124.79772039681981 291.0
39656.0 302.0 0 124.53387743615001 291.0
39678.0 306.0 0 124.2700344754802 291.0
39698.0 303.0 0 124.00619151481038 291.0
39720.0 308.0 0 123.74234855414058 291.0
39741.0 288.0 0 123.47850559347077 291.0
39763.0 422.0 500 123.21466263280095 291.0
39783.0 444.0 0 122.95081967213115 291.0
39805.0 557.0 0 122.74035952205902 291.0
39826.0 557.0 0 122.52989937198691 291.0
39848.0 560.0 0 122.31943922191479 291.0
39868.0 561.0 0 122.10897907184268 291.0
39890.0 559.0 0 121.89851892177056 291.0
39911.0 559.0 0 121.68805877169844 291.0
39933.0 561.0 0 121.47759862162633 291.0
39953.0 561.0 0 121.2671384715542 291.0
39975.0 562.0 0 121.0566783214821 291.0
39996.0 560.0 0 120.84621817140997 291.0
40017.0 560.0 0 120.63575802133785 291.0
40038.0 560.0 0 120.42529787126574 291.0
40060.0 559.0 0 120.21483772119362 291.0
40081.0 559.0 0 120.0043775711215 292.0
40122.0 560.0 0 119.79391742104939 296.0
40144.0 333.0 0 119.58345727097726 297.0
40164.0 307.0 0 119.37299712090515 299.0
40186.0 303.0 0 119.16253697083303 301.0
40207.0 303.0 0 118.95207682076091 303.0
40229.0 301.0 0 118.7416166706888 305.0
40249.0 193.0 0 118.53115652061668 306.0
40271.0 294.0 500 118.32069637054457 308.0
40292.0 92.0 0 118.11023622047244 310.0
40313.0 133.0 500 773.3408323959505 312.0
40333.0 219.0 0 1428.5714285714287 313.0
40355.0 120.0 0 1322.11136502982 315.0
40376.0 158.0 0 1215.6513014882114 317.0
40396.0 247.0 0 1109.191237946603 319.0
40418.0 168.0 0 1002.7311744049941 320.0
40440.0 163.0 0 896.2711108633856 322.0
40461.0 171.0 0 789.8110473217771 324.0
40481.0 179.0 0 683.3509837801683 326.0
40503.0 223.0 0 576.8909202385597 328.0
40524.0 198.0 0 470.4308566969511 329.0
40546.0 305.0 500 363.97079315534256 331.0
40566.0 305.0 0 257.51072961373393 332.0
40608.0 548.0 500 612.6263325488025 332.0
40629.0 336.0 0 967.741935483871 331.0
40650.0 320.0 0 955.1611621108775 331.0
40672.0 320.0 0 942.580388737884 330.0
40693.0 321.0 0 929.9996153648905 330.0
40714.0 322.0 0 917.418841991897 329.0
40735.0 397.0 0 904.8380686189035 329.0
40757.0 561.0 0 892.2572952459101 329.0
40778.0 557.0 0 879.6765218729165 328.0
40799.0 561.0 0 867.095748499923 328.0
40820.0 560.0 0 854.5149751269296 327.0
40842.0 560.0 0 841.9342017539361 327.0
40863.0 558.0 0 829.3534283809427 326.0
40884.0 560.0 0 816.7726550079491 326.0
40905.0 559.0 0 804.1918816349556 326.0
40927.0 559.0 0 791.6111082619622 325.0
40948.0 559.0 0 779.0303348889687 325.0
40969.0 560.0 0 766.4495615159751 324.0
40990.0 560.0 0 753.8687881429817 324.0
41012.0 557.0 0 741.2880147699882 324.0
41032.0 561.0 0 728.7072413969947 323.0
41054.0 557.0 0 716.1264680240013 323.0
41075.0 557.0 0 703.5456946510078 323.0
41116.0 557.0 0 690.9649212780142 323.0
41138.0 323.0 0 678.3841479050208 324.0
41159.0 305.0 0 665.8033745320272 324.0
41180.0 306.0 0 653.2226011590337 324.0
41201.0 303.0 0 640.6418277860403 325.0
41223.0 309.0 0 628.0610544130468 325.0
41244.0 486.0 0 615.4802810400533 325.0
41265.0 558.0 0 602.8995076670599 326.0
41286.0 559.0 0 590.3187342940664 326.0
41308.0 560.0 0 577.737960921073 326.0
41329.0 557.0 0 565.1571875480794 327.0
41350.0 556.0 0 552.5764141750859 327.0
41371.0 561.0 0 539.9956408020923 327.0
41393.0 559.0 0 527.4148674290989 328.0
41414.0 562.0 0 514.8340940561054 328.0
41435.0 561.0 0 502.25332068311195 328.0
41456.0 560.0 0 489.6725473101185 329.0
41478.0 562.0 0 477.091773937125 329.0
41498.0 561.0 0 464.51100056413145 329.0
41520.0 557.0 0 451.930227191138 330.0
41541.0 561.0 0 439.3494538181445 330.0
41563.0 561.0 0 426.76868044515106 331.0
41604.0 562.0 0 414.1879070721575 331.0
41625.0 337.0 0 401.607133699164 332.0
41646.0 306.0 0 389.02636032617056 332.0
41667.0 296.0 0 376.4455869531771 332.0
41689.0 309.0 0 363.8648135801835 333.0
41710.0 310.0 0 351.28404020719006 333.0
41731.0 384.0 0 338.7032668341966 334.0
41752.0 563.0 0 326.12249346120313 334.0
41774.0 562.0 0 313.54172008820956 334.0
41795.0 563.0 0 300.9609467152161 335.0
41816.0 558.0 0 288.38017334222263 335.0
41837.0 563.0 0 275.79939996922917 335.0
41859.0 561.0 0 263.2186265962357 336.0
41880.0 564.0 0 250.63785322324225 336.0
41901.0 563.0 0 238.05707985024878 337.0
41922.0 561.0 0 225.47630647725532 337.0
41944.0 555.0 0 212.89553310426174 337.0
41965.0 561.0 0 200.31475973126828 338.0
41986.0 559.0 0 187.73398635827482 338.0
42007.0 559.0 0 175.15321298528136 338.0
42029.0 558.0 0 162.57243961228778 339.0
42049.0 563.0 0 149.99166623929432 339.0
42071.0 563.0 0 137.41089286630086 340.0
42113.0 561.0 0 124.8301194933074 340.0
42133.0 328.0 0 112.24934612031382 340.0
42155.0 300.0 0 99.66857274732035 340.0
42176.0 304.0 0 87.08779937432689 340.0
42197.0 303.0 0 74.50702600133343 341.0
42218.0 300.0 0 61.92625262833985 341.0
42240.0 358.0 500 49.34547925534639 341.0
42261.0 564.0 0 36.76470588235294 341.0
42282.0 562.0 0 39.64983452546173 341.0
42303.0 561.0 0 42.53496316857051 341.0
42325.0 561.0 0 45.4200918116793 342.0
42346.0 561.0 0 48.305220454788085 342.0
42367.0 561.0 0 51.19034909789687 342.0
42388.0 561.0 0 54.075477741005656 342.0
42410.0 564.0 0 56.96060638411445 342.0
42431.0 561.0 0 59.84573502722323 342.0
42452.0 557.0 0 62.73086367033201 343.0
42473.0 560.0 0 65.61599231344081 343.0
42495.0 561.0 0 68.50112095654958 343.0
42515.0 559.0 0 71.38624959965838 343.0
42537.0 561.0 0 74.27137824276716 343.0
42558.0 559.0 0 77.15650688587596 343.0
42580.0 559.0 0 80.04163552898473 343.0
42621.0 559.0 0 82.92676417209353 343.0
42642.0 324.0 0 85.81189281520231 343.0
42663.0 300.0 0 88.6970214583111 342.0
42684.0 296.0 0 91.58215010141988 342.0
42706.0 290.0 0 94.46727874452867 342.0
42727.0 309.0 0 97.35240738763744 342.0
42748.0 247.0 0 100.23753603074624 341.0
42769.0 246.0 0 103.12266467385503 341.0
42791.0 425.0 500 106.00779331696381 341.0
42812.0 370.0 0 108.8929219600726 341.0
42833.0 554.0 500 768.7321752657507 340.0
42854.0 559.0 0 1428.5714285714287 340.0
42876.0 558.0 0 1360.831323591999 340.0
42897.0 557.0 0 1293.0912186125693 339.0
42918.0 559.0 0 1225.3511136331394 339.0
42939.0 561.0 0 1157.6110086537099 339.0
42961.0 562.0 0 1089.8709036742803 339.0
42982.0 562.0 0 1022.1307986948505 338.0
43003.0 561.0 0 954.3906937154208 338.0
43024.0 561.0 0 886.650588735991 338.0
43046.0 562.0 0 818.9104837565613 338.0
43066.0 562.0 0 751.1703787771316 337.0
43108.0 558.0 0 683.4302737977018 337.0
43130.0 334.0 0 615.6901688182722 337.0
43150.0 311.0 0 547.9500638388424 337.0
43172.0 294.0 0 480.20995885941284 337.0
43193.0 311.0 0 412.469853879983 337.0
43214.0 299.0 0 344.72974890055343 337.0
43235.0 269.0 0 276.9896439211236 336.0
43257.0 496.0 500 209.24953894169403 336.0
43278.0 560.0 0 141.50943396226415 336.0
43299.0 561.0 0 140.5022061928732 336.0
43320.0 559.0 0 139.49497842348225 336.0
43342.0 563.0 0 138.4877506540913 336.0
43363.0 563.0 0 137.48052288470032 336.0
43384.0 563.0 0 136.47329511530938 336.0
43405.0 563.0 0 135.46606734591842 335.0
43427.0 559.0 0 134.45883957652748 335.0
43448.0 559.0 0 133.45161180713652 335.0
43468.0 561.0 0 132.44438403774555 335.0
43490.0 561.0 0 131.4371562683546 335.0
43512.0 562.0 0 130.42992849896365 335.0
43533.0 563.0 0 129.42270072957268 335.0
43553.0 562.0 0 128.41547296018175 335.0
43575.0 562.0 0 127.40824519079078 334.0
43616.0 560.0 0 126.40101742139983 334.0
43637.0 328.0 0 125.39378965200888 334.0
43659.0 308.0 0 124.38656188261793 333.0
43680.0 306.0 0 123.37933411322696 333.0
43701.0 293.0 0 122.37210634383601 333.0
43722.0 309.0 0 121.36487857444506 333.0
43744.0 290.0 0 120.3576508050541 332.0
43764.0 422.0 500 119.35042303566314 332.0
43786.0 562.0 0 118.34319526627219 332.0
43807.0 563.0 0 117.18033066298993 332.0
43829.0 562.0 0 116.01746605970769 331.0
43849.0 557.0 0 114.85460145642543 331.0
43871.0 563.0 0 113.69173685314317 331.0
43892.0 563.0 0 112.52887224986092 331.0
43914.0 563.0 0 111.36600764657867 330.0
43934.0 563.0 0 110.20314304329641 330.0
43956.0 559.0 0 109.04027844001416 330.0
43977.0 563.0 0 107.8774138367319 330.0
43999.0 563.0 0 106.71454923344965 329.0
44019.0 557.0 0 105.5516846301674 329.0
44041.0 563.0 0 104.38882002688514 329.0
44062.0 563.0 0 103.22595542360288 329.0
44084.0 563.0 0 102.06309082032064 328.0
44125.0 555.0 0 100.90022621703838 327.0
44146.0 327.0 0 99.73736161375612 327.0
44167.0 303.0 0 98.57449701047388 326.0
44188.0 305.0 0 97.41163240719162 326.0
44210.0 295.0 0 96.24876780390937 325.0
44230.0 306.0 0 95.08590320062711 325.0
44252.0 479.0 0 93.92303859734486 324.0
44273.0 563.0 0 92.7601739940626 324.0
44295.0 563.0 0 91.59730939078035 323.0
44315.0 557.0 0 90.4344447874981 323.0
44337.0 563.0 0 89.27158018421585 322.0
44358.0 563.0 0 88.10871558093359 322.0
44380.0 557.0 0 86.94585097765133 322.0
44400.0 563.0 0 85.78298637436907 321.0
44422.0 557.0 0 84.62012177108683 321.0
44443.0 563.0 0 83.45725716780457 320.0
44465.0 563.0 0 82.29439256452233 320.0
44485.0 563.0 0 81.13152796124007 319.0
44507.0 563.0 0 79.96866335795781 319.0
44528.0 557.0 0 78.80579875467555 318.0
44550.0 564.0 0 77.64293415139332 318.0
44570.0 564.0 0 76.48006954811106 318.0
44612.0 562.0 0 75.3172049448288 318.0
44633.0 327.0 0 74.15434034154654 318.0
44654.0 302.0 0 72.99147573826428 318.0
44676.0 291.0 0 71.82861113498204 318.0
44697.0 306.0 0 70.66574653169978 318.0
44718.0 307.0 0 69.50288192841752 318.0
44739.0 331.0 0 68.34001732513528 318.0
44761.0 558.0 0 67.17715272185302 318.0
44782.0 564.0 0 66.01428811857076 318.0
44803.0 564.0 0 64.85142351528852 318.0
44824.0 564.0 0 63.68855891200626 318.0
44846.0 565.0 0 62.525694308724006 318.0
44866.0 565.0 0 61.362829705441754 318.0
44888.0 557.0 0 60.199965102159496 318.0
44909.0 564.0 0 59.037100498877244 318.0
44931.0 564.0 0 57.874235895594985 318.0
44951.0 564.0 0 56.71137129231274 318.0
44973.0 563.0 0 55.54850668903048 318.0
44994.0 563.0 0 54.38564208574822 318.0
45016.0 562.0 0 53.22277748246597 318.0
45036.0 562.0 0 52.05991287918371 318.0
45058.0 559.0 0 50.89704827590147 318.0
45079.0 559.0 0 49.73418367261921 318.0
45120.0 557.0 0 48.57131906933695 317.0
45142.0 320.0 0 47.40845446605471 316.0
45163.0 298.0 0 46.24558986277245 316.0
45184.0 303.0 0 45.08272525949019 315.0
45205.0 301.0 0 43.919860656207945 315.0
45227.0 301.0 0 42.756996052925686 314.0
45248.0 384.0 500 41.59413144964344 314.0
45269.0 559.0 0 40.43126684636118 313.0
45290.0 562.0 0 43.80861334088776 313.0
45312.0 559.0 0 47.18595983541434 312.0
45333.0 559.0 0 50.563306329940914 311.0
45354.0 563.0 0 53.94065282446749 311.0
45375.0 563.0 0 57.31799931899407 310.0
45397.0 559.0 0 60.695345813520646 310.0
45417.0 563.0 0 64.07269230804722 309.0
45439.0 563.0 0 67.4500388025738 309.0
45460.0 563.0 0 70.82738529710038 308.0
45482.0 557.0 0 74.20473179162695 308.0
45502.0 562.0 0 77.58207828615352 307.0
45524.0 563.0 0 80.95942478068011 307.0
45545.0 557.0 0 84.33677127520667 306.0
45567.0 557.0 0 87.71411776973326 306.0
45608.0 556.0 0 91.09146426425983 306.0
45629.0 326.0 0 94.4688107587864 306.0
45650.0 295.0 0 97.84615725331298 306.0
45671.0 299.0 0 101.22350374783957 306.0
45693.0 302.0 0 104.60085024236614 306.0
45714.0 301.0 0 107.97819673689271 306.0
45735.0 125.0 0 111.35554323141929 306.0
45756.0 211.0 500 114.73288972594587 306.0
45778.0 99.0 0 118.11023622047244 306.0
45798.0 141.0 500 773.3408323959505 306.0
45819.0 305.0 0 1428.5714285714287 306.0
45840.0 173.0 0 1264.8809523809525 306.0
45862.0 302.0 500 1101.1904761904761 306.0
45883.0 224.0 0 937.5 306.0
45904.0 419.0 500 1183.0357142857142 306.0
45925.0 393.0 0 1428.5714285714287 306.0
45947.0 562.0 500 1411.9601328903655 306.0
45967.0 559.0 0 1395.3488372093022 306.0
45989.0 556.0 0 1373.2007111277298 306.0
46010.0 559.0 0 1351.0525850461574 306.0
46032.0 563.0 0 1328.9044589645848 306.0
46052.0 562.0 0 1306.7563328830124 306.0
46074.0 562.0 0 1284.60820680144 307.0
46115.0 561.0 0 1262.4600807198676 307.0
46136.0 340.0 0 1240.311954638295 308.0
46158.0 310.0 0 1218.1638285567226 308.0
46179.0 311.0 0 1196.0157024751502 308.0
46200.0 311.0 0 1173.8675763935778 309.0
46221.0 314.0 0 1151.7194503120054 309.0
46243.0 501.0 0 1129.5713242304328 309.0
46264.0 563.0 0 1107.4231981488604 310.0
46284.0 559.0 0 1085.275072067288 310.0
46306.0 563.0 0 1063.1269459857153 310.0
46328.0 563.0 0 1040.978819904143 311.0
46349.0 563.0 0 1018.8306938225705 311.0
46369.0 563.0 0 996.6825677409981 311.0
46391.0 563.0 0 974.5344416594256 312.0
46412.0 559.0 0 952.3863155778532 312.0
46434.0 562.0 0 930.2381894962807 312.0
46454.0 561.0 0 908.0900634147083 313.0
46476.0 561.0 0 885.9419373331359 313.0
46497.0 559.0 0 863.7938112515634 313.0
46518.0 561.0 0 841.6456851699909 314.0
46539.0 562.0 0 819.4975590884185 314.0
46561.0 559.0 0 797.3494330068461 314.0
46582.0 559.0 0 775.2013069252736 315.0
46623.0 561.0 0 753.0531808437012 316.0
46645.0 320.0 0 730.9050547621287 317.0
46665.0 302.0 0 708.7569286805563 317.0
46687.0 300.0 0 686.6088025989837 318.0
46708.0 302.0 0 664.4606765174112 319.0
46730.0 298.0 0 642.312550435839 319.0
46750.0 330.0 0 620.1644243542664 320.0
46772.0 448.0 0 598.016298272694 320.0
46793.0 559.0 0 575.8681721911215 321.0
46815.0 559.0 0 553.720046109549 322.0
46835.0 560.0 0 531.5719200279766 322.0
46857.0 559.0 0 509.4237939464042 323.0
46878.0 559.0 0 487.2756678648318 323.0
46900.0 560.0 0 465.1275417832593 324.0
46920.0 557.0 0 442.9794157016868 324.0
46942.0 557.0 0 420.8312896201144 325.0
46963.0 560.0 0 398.68316353854186 326.0
46985.0 559.0 0 376.53503745696946 326.0
47005.0 560.0 0 354.38691137539695 327.0
47027.0 559.0 0 332.23878529382455 327.0
47048.0 560.0 0 310.09065921225215 328.0
47069.0 560.0 0 287.9425331306795 328.0
47111.0 558.0 0 265.7944070491071 328.0
47131.0 324.0 0 243.64628096753472 328.0
47153.0 296.0 0 221.49815488596232 328.0
47174.0 295.0 0 199.35002880438992 328.0
47196.0 298.0 0 177.2019027228173 327.0
47216.0 300.0 0 155.0537766412449 327.0
47238.0 210.0 0 132.9056505596725 327.0
47259.0 191.0 0 110.7575244781001 327.0
47281.0 106.0 0 88.6093983965277 327.0
47301.0 161.0 500 66.46127231495507 327.0
47323.0 183.0 0 44.31314623338257 326.0
47344.0 377.0 0 148.65806415651738 326.0
47366.0 178.0 0 253.0029820796522 326.0
47386.0 80.0 0 357.34790000278696 326.0
47407.0 124.0 500 461.6928179259218 326.0
47428.0 108.0 0 566.0377358490566 326.0
47449.0 124.0 0 568.2148040638607 325.0
47470.0 77.0 0 570.3918722786648 325.0
47491.0 54.0 0 572.5689404934687 325.0
47511.0 96.0 500 574.7460087082728 325.0
47531.0 95.0 0 576.9230769230769 325.0
47551.0 111.0 0 578.3233756534728 325.0
47573.0 111.0 0 579.7236743838686 324.0
47614.0 538.0 500 581.1239731142643 324.0
47635.0 336.0 0 582.5242718446602 323.0
47656.0 316.0 0 554.4371204987499 323.0
47677.0 317.0 0 526.3499691528395 322.0
47699.0 317.0 0 498.26281780692926 322.0
47720.0 325.0 0 470.175666461019 322.0
47741.0 274.0 0 442.08851511510863 321.0
47762.0 266.0 0 414.0013637691983 321.0
47784.0 276.0 0 385.91421242328806 321.0
47805.0 261.0 0 357.8270610773777 320.0
47826.0 205.0 0 329.7399097314674 320.0
47847.0 173.0 0 301.65275838555704 319.0
47869.0 171.0 0 273.56560703964675 319.0
47890.0 509.0 500 245.4784556937364 319.0
47911.0 558.0 0 217.3913043478261 318.0
47932.0 559.0 0 213.05136905231595 318.0
47954.0 554.0 0 208.7114337568058 317.0
47975.0 558.0 0 204.3714984612957 317.0
47996.0 558.0 0 200.03156316578554 317.0
48017.0 555.0 0 195.6916278702754 316.0
48039.0 555.0 0 191.35169257476525 316.0
48060.0 555.0 0 187.0117572792551 316.0
48081.0 555.0 0 182.67182198374496 315.0
48123.0 556.0 0 178.33188668823485 315.0
48143.0 336.0 0 173.9919513927247 315.0
48165.0 320.0 0 169.65201609721456 315.0
48186.0 304.0 0 165.3120808017044 315.0
48207.0 310.0 0 160.97214550619427 315.0
48228.0 308.0 0 156.63221021068412 315.0
48250.0 272.0 0 152.292274915174 314.0
48271.0 277.0 0 147.95233961966386 314.0
48292.0 317.0 0 143.61240432415372 314.0
48313.0 332.0 0 139.27246902864357 314.0
48335.0 329.0 0 134.93253373313343 314.0
48356.0 347.0 0 130.59259843762328 314.0
48377.0 323.0 0 126.25266314211316 314.0
48398.0 315.0 0 121.91272784660302 313.0
48420.0 314.0 0 117.57279255109287 313.0
48441.0 519.0 500 113.23285725558274 313.0
48462.0 562.0 0 108.8929219600726 313.0
48483.0 557.0 0 107.82623098621123 313.0
48505.0 561.0 0 106.75954001234986 313.0
48526.0 559.0 0 105.69284903848849 313.0
48547.0 562.0 0 104.6261580646271 313.0
48568.0 562.0 0 103.55946709076574 312.0
48609.0 558.0 0 102.49277611690437 311.0
48630.0 347.0 0 101.426085143043 310.0
48652.0 323.0 0 100.35939416918163 309.0
48673.0 311.0 0 99.29270319532026 309.0
48694.0 310.0 0 98.22601222145889 308.0
48715.0 322.0 0 97.1593212475975 307.0
48737.0 343.0 0 96.09263027373613 307.0
48757.0 354.0 0 95.02593929987476 306.0
48779.0 358.0 0 93.9592483260134 305.0
48800.0 413.0 0 92.89255735215202 304.0
48822.0 563.0 0 91.82586637829066 304.0
48842.0 557.0 0 90.75917540442929 303.0
48864.0 557.0 0 89.6924844305679 302.0
48885.0 563.0 0 88.62579345670653 302.0
48907.0 559.0 0 87.55910248284516 301.0
48927.0 560.0 0 86.49241150898379 300.0
48949.0 563.0 0 85.42572053512242 299.0
48970.0 563.0 0 84.35902956126105 299.0
48992.0 559.0 0 83.29233858739968 298.0
49012.0 563.0 0 82.22564761353831 297.0
49034.0 563.0 0 81.15895663967694 296.0
49055.0 557.0 0 80.09226566581556 296.0
49077.0 557.0 0 79.02557469195419 295.0
49118.0 559.0 0 77.95888371809282 295.0
49139.0 326.0 0 76.89219274423145 295.0
49160.0 301.0 0 75.82550177037008 295.0
49181.0 304.0 0 74.7588107965087 294.0
49203.0 310.0 0 73.69211982264733 294.0
49224.0 306.0 0 72.62542884878596 294.0
49245.0 337.0 0 71.55873787492459 294.0
49266.0 375.0 0 70.49204690106322 293.0
49288.0 317.0 0 69.42535592720185 293.0
49308.0 322.0 0 68.35866495334048 293.0
49330.0 350.0 0 67.29197397947911 293.0
49351.0 345.0 0 66.22528300561774 293.0
49373.0 337.0 0 65.15859203175636 292.0
49393.0 404.0 500 64.091901057895 292.0
49415.0 560.0 0 63.02521008403362 292.0
49436.0 563.0 0 62.9363815227979 292.0
49458.0 563.0 0 62.84755296156218 292.0
49478.0 558.0 0 62.758724400326464 291.0
49500.0 559.0 0 62.66989583909074 291.0
49521.0 563.0 0 62.58106727785503 291.0
49543.0 563.0 0 62.492238716619305 291.0
49563.0 563.0 0 62.40341015538359 291.0
49605.0 562.0 0 62.31458159414787 290.0
49626.0 342.0 0 62.22575303291215 289.0
49647.0 304.0 0 62.13692447167643 289.0
49669.0 317.0 0 62.048095910440715 289.0
49690.0 305.0 0 61.959267349205 288.0
49711.0 318.0 0 61.87043878796928 288.0
49732.0 326.0 0 61.78161022673356 288.0
49754.0 373.0 0 61.69278166549784 287.0
49775.0 405.0 0 61.603953104262125 287.0
49796.0 561.0 0 61.5151245430264 287.0
49817.0 559.0 0 61.42629598179069 286.0
49839.0 559.0 0 61.337467420554965 286.0
49859.0 564.0 0 61.24863885931925 286.0
49881.0 564.0 0 61.15981029808353 285.0
49902.0 564.0 0 61.07098173684781 285.0
49924.0 564.0 0 60.9821531756121 285.0
49944.0 564.0 0 60.893324614376375 284.0
49966.0 564.0 0 60.80449605314066 284.0
49987.0 559.0 0 60.71566749190494 284.0
50009.0 557.0 0 60.62683893066922 283.0
50029.0 564.0 0 60.5380103694335 283.0
50051.0 559.0 0 60.449181808197785 283.0
50072.0 559.0 0 60.36035324696206 282.0
50113.0 558.0 0 60.27152468572635 282.0
50135.0 325.0 0 60.182696124490626 281.0
50156.0 309.0 0 60.09386756325491 281.0
50177.0 309.0 0 60.00503900201919 280.0
50198.0 310.0 0 59.91621044078347 280.0
50220.0 304.0 0 59.82738187954776 280.0
50241.0 325.0 0 59.738553318312036 279.0
50262.0 313.0 0 59.64972475707632 279.0
50283.0 344.0 0 59.5608961958406 279.0
50305.0 299.0 0 59.47206763460488 278.0
50326.0 302.0 0 59.38323907336916 278.0
50347.0 304.0 0 59.294410512133446 277.0
50368.0 321.0 0 59.205581950897724 277.0
50390.0 252.0 0 59.11675338966201 277.0
50411.0 308.0 500 59.027924828426286 276.0
50432.0 358.0 0 58.93909626719057 276.0
50453.0 263.0 0 83.98588441233159 275.0
50475.0 291.0 0 109.03267255747261 275.0
50495.0 305.0 0 134.0794607026136 275.0
50517.0 340.0 0 159.12624884775462 274.0
50538.0 298.0 0 184.17303699289565 274.0
50560.0 304.0 0 209.21982513803664 274.0
50580.0 304.0 0 234.2666132831777 273.0
50622.0 557.0 500 259.3134014283187 273.0
50643.0 340.0 0 284.3601895734597 273.0
50664.0 324.0 0 287.668626915792 273.0
50686.0 325.0 0 290.9770642581243 273.0
50707.0 324.0 0 294.28550160045654 273.0
50728.0 321.0 0 297.59393894278884 273.0
50749.0 222.0 0 300.90237628512114 272.0
50771.0 248.0 0 304.21081362745343 272.0
50792.0 246.0 0 307.5192509697857 272.0
50813.0 304.0 500 310.82768831211797 272.0
50834.0 291.0 0 314.13612565445027 272.0
50856.0 321.0 0 364.51644769337156 272.0
50877.0 282.0 0 414.8967697322928 272.0
50898.0 222.0 0 465.27709177121403 271.0
50919.0 294.0 500 515.6574138101354 271.0
50941.0 389.0 0 566.0377358490566 271.0
50962.0 249.0 0 564.9797213895257 271.0
50983.0 232.0 0 563.9217069299947 271.0
51004.0 164.0 0 562.8636924704638 271.0
51026.0 257.0 500 561.8056780109328 271.0
51046.0 344.0 0 560.7476635514018 271.0
51068.0 344.0 0 614.7956311226213 271.0
51109.0 543.0 500 668.8435986938407 271.0
51130.0 342.0 0 722.8915662650602 271.0
51152.0 326.0 0 680.5346385542168 271.0
51173.0 328.0 0 638.1777108433735 271.0
51194.0 329.0 0 595.8207831325301 271.0
51215.0 328.0 0 553.4638554216867 271.0
51237.0 433.0 500 511.10692771084337 271.0
51258.0 560.0 0 468.75 271.0
51279.0 559.0 0 453.51492153331617 271.0
51300.0 562.0 0 438.27984306663234 271.0
51322.0 559.0 0 423.04476459994856 272.0
51343.0 559.0 0 407.80968613326473 272.0
51364.0 560.0 0 392.5746076665809 272.0
51385.0 557.0 0 377.3395291998971 272.0
51407.0 558.0 0 362.1044507332133 272.0
51428.0 559.0 0 346.86937226652947 272.0
51449.0 561.0 0 331.63429379984564 272.0
51470.0 558.0 0 316.3992153331618 272.0
51492.0 559.0 0 301.164136866478 272.0
51512.0 559.0 0 285.92905839979414 272.0
51534.0 560.0 0 270.69397993311037 272.0
51555.0 557.0 0 255.45890146642654 272.0
51577.0 557.0 0 240.2238229997427 273.0
51617.0 557.0 0 224.9887445330589 273.0
51639.0 330.0 0 209.7536660663751 273.0
51659.0 304.0 0 194.51858759969127 274.0
51681.0 302.0 0 179.28350913300744 274.0
51702.0 310.0 0 164.0484306663236 274.0
51724.0 307.0 0 148.81335219963984 274.0
51744.0 363.0 500 133.578273732956 275.0
51766.0 558.0 0 118.34319526627219 275.0
51787.0 561.0 0 117.9651843340242 275.0
51809.0 558.0 0 117.58717340177623 275.0
51829.0 561.0 0 117.20916246952824 276.0
51851.0 559.0 0 116.83115153728025 276.0
51872.0 557.0 0 116.45314060503227 276.0
51894.0 559.0 0 116.07512967278429 276.0
51914.0 561.0 0 115.6971187405363 277.0
51936.0 561.0 0 115.31910780828832 277.0
51957.0 561.0 0 114.94109687604033 277.0
51979.0 559.0 0 114.56308594379236 277.0
51999.0 560.0 0 114.18507501154437 278.0
52021.0 559.0 0 113.80706407929638 278.0
52042.0 558.0 0 113.4290531470484 278.0
52063.0 559.0 0 113.05104221480042 278.0
52084.0 559.0 0 112.67303128255243 279.0
52126.0 556.0 0 112.29502035030445 279.0
52147.0 321.0 0 111.91700941805647 279.0
52168.0 302.0 0 111.53899848580849 279.0
52190.0 296.0 0 111.1609875535605 279.0
52210.0 297.0 0 110.78297662131251 279.0
52232.0 303.0 0 110.40496568906454 279.0
52253.0 267.0 0 110.02695475681655 279.0
52275.0 159.0 0 109.64894382456856 279.0
52295.0 217.0 500 109.27093289232059 279.0
52317.0 203.0 0 108.8929219600726 279.0
52338.0 500.0 500 752.1208795846875 279.0
52360.0 558.0 0 1395.3488372093022 279.0
52380.0 559.0 0 1374.2067228955125 279.0
52402.0 558.0 0 1353.0646085817227 279.0
52423.0 559.0 0 1331.9224942679332 279.0
52445.0 556.0 0 1310.7803799541434 279.0
52465.0 557.0 0 1289.6382656403537 279.0
52487.0 561.0 0 1268.496151326564 279.0
52508.0 562.0 0 1247.3540370127741 279.0
52530.0 561.0 0 1226.2119226989846 279.0
52550.0 561.0 0 1205.0698083851948 279.0
52572.0 561.0 0 1183.927694071405 279.0
52613.0 561.0 0 1162.7855797576153 279.0
52634.0 334.0 0 1141.6434654438258 279.0
52656.0 306.0 0 1120.501351130036 279.0
52677.0 307.0 0 1099.3592368162463 279.0
52698.0 302.0 0 1078.2171225024565 278.0
52719.0 304.0 0 1057.0750081886667 278.0
52741.0 389.0 0 1035.9328938748772 278.0
52761.0 556.0 0 1014.7907795610874 278.0
52783.0 559.0 0 993.6486652472977 278.0
52804.0 557.0 0 972.5065509335079 278.0
52826.0 562.0 0 951.3644366197182 277.0
52846.0 557.0 0 930.2223223059285 277.0
52868.0 559.0 0 909.0802079921389 277.0
52889.0 559.0 0 887.9380936783491 277.0
52911.0 559.0 0 866.7959793645593 277.0
52931.0 559.0 0 845.6538650507697 277.0
52953.0 563.0 0 824.5117507369799 276.0
52974.0 559.0 0 803.3696364231902 276.0
52996.0 563.0 0 782.2275221094005 276.0
53016.0 563.0 0 761.0854077956108 276.0
53038.0 563.0 0 739.9432934818211 276.0
53059.0 563.0 0 718.8011791680314 276.0
53081.0 563.0 0 697.6590648542416 276.0
53122.0 562.0 0 676.516950540452 276.0
53143.0 333.0 0 655.3748362266622 276.0
53164.0 307.0 0 634.2327219128725 276.0
53185.0 298.0 0 613.0906075990828 276.0
53207.0 300.0 0 591.948493285293 276.0
53228.0 301.0 0 570.8063789715034 276.0
53249.0 375.0 0 549.6642646577136 276.0
53270.0 563.0 0 528.522150343924 276.0
53292.0 561.0 0 507.3800360301342 276.0
53312.0 563.0 0 486.23792171634443 276.0
53334.0 557.0 0 465.0958074025548 277.0
53355.0 564.0 0 443.953693088765 277.0
53377.0 563.0 0 422.8115787749754 277.0
53397.0 565.0 0 401.6694644611856 277.0
53419.0 557.0 0 380.52735014739596 277.0
53440.0 558.0 0 359.3852358336062 277.0
53462.0 559.0 0 338.24312151981644 277.0
53482.0 559.0 0 317.1010072060267 277.0
53504.0 559.0 0 295.95889289223715 277.0
53525.0 565.0 0 274.8167785784474 277.0
53547.0 557.0 0 253.67466426465762 277.0
53567.0 557.0 0 232.53254995086786 277.0
53609.0 563.0 0 211.3904356370781 277.0
53630.0 322.0 0 190.24832132328856 277.0
53651.0 298.0 0 169.1062070094988 277.0
53673.0 293.0 0 147.96409269570904 277.0
53694.0 296.0 0 126.82197838191928 277.0
53715.0 306.0 0 105.67986406812952 277.0
53736.0 199.0 0 84.53774975433998 276.0
53758.0 279.0 500 63.39563544055022 276.0
53779.0 186.0 0 42.25352112676056 276.0
53800.0 142.0 0 345.6293315448245 276.0
53821.0 272.0 500 649.0051419628884 276.0
53843.0 175.0 0 952.3809523809524 276.0
53863.0 280.0 500 1190.4761904761906 276.0
53885.0 257.0 0 1428.5714285714287 276.0
53906.0 213.0 0 1260.0732600732601 275.0
53928.0 300.0 500 1091.5750915750916 275.0
53948.0 154.0 0 923.0769230769231 275.0
53970.0 284.0 500 1175.8241758241759 275.0
53991.0 563.0 0 1428.5714285714287 275.0
54013.0 561.0 0 1353.8013630649111 275.0
54033.0 561.0 0 1279.0312975583936 275.0
54055.0 560.0 0 1204.2612320518758 275.0
54076.0 560.0 0 1129.4911665453583 275.0
54117.0 563.0 0 1054.7211010388407 275.0
54139.0 332.0 0 979.9510355323232 275.0
54160.0 313.0 0 905.1809700258057 275.0
54181.0 304.0 0 830.410904519288 276.0
54202.0 315.0 0 755.6408390127705 276.0
54224.0 314.0 0 680.8707735062528 276.0
54245.0 249.0 0 606.1007079997353 276.0
54266.0 240.0 0 531.3306424932176 277.0
54287.0 279.0 0 456.5605769867002 277.0
54309.0 257.0 0 381.79051148018266 277.0
54330.0 192.0 0 307.0204459736649 277.0
54351.0 270.0 500 232.25038046714735 277.0
54372.0 176.0 0 157.48031496062993 278.0
54394.0 200.0 0 181.9129226493747 278.0
54414.0 228.0 0 206.3455303381195 278.0
54436.0 240.0 0 230.7781380268643 278.0
54457.0 208.0 0 255.21074571560908 278.0
54479.0 138.0 0 279.6433534043539 279.0
54499.0 136.0 0 304.07596109309867 279.0
54521.0 285.0 500 328.50856878184345 279.0
54542.0 356.0 0 352.94117647058823 279.0
54564.0 148.0 0 407.56302521008405 279.0
54584.0 148.0 0 462.1848739495798 280.0
54626.0 546.0 500 516.8067226890756 280.0
54646.0 337.0 0 571.4285714285714 280.0
54668.0 336.0 0 543.0242272347535 281.0
54689.0 319.0 0 514.6198830409357 281.0
54711.0 319.0 0 486.21553884711784 281.0
54731.0 335.0 0 457.81119465329994 281.0
54753.0 315.0 0 429.40685045948203 282.0
54774.0 191.0 0 401.0025062656642 282.0
54796.0 180.0 0 372.5981620718463 282.0
54816.0 225.0 500 344.1938178780284 283.0
54838.0 228.0 0 315.7894736842105 283.0
54859.0 136.0 0 518.2186234817814 283.0
54881.0 208.0 500 720.6477732793522 283.0
54901.0 209.0 0 923.0769230769231 284.0
54923.0 191.0 0 856.7432567432568 284.0
54944.0 196.0 0 790.4095904095905 284.0
54965.0 224.0 0 724.0759240759241 284.0
54986.0 267.0 0 657.7422577422577 285.0
55008.0 159.0 0 591.4085914085914 285.0
55029.0 103.0 0 525.0749250749251 285.0
55050.0 142.0 0 458.7412587412588 285.0
55071.0 142.0 0 392.40759240759235 286.0
55112.0 544.0 500 326.07392607392603 286.0
55134.0 347.0 0 259.7402597402597 286.0
55155.0 324.0 0 254.89233969799338 287.0
55177.0 333.0 0 250.04441965572704 287.0
55197.0 336.0 0 245.19649961346073 287.0
55219.0 328.0 0 240.3485795711944 288.0
55240.0 326.0 0 235.50065952892805 288.0
55262.0 332.0 0 230.65273948666172 288.0
55282.0 361.0 0 225.80481944439538 289.0
55304.0 558.0 0 220.95689940212907 289.0
55325.0 563.0 0 216.10897935986273 289.0
55347.0 557.0 0 211.2610593175964 289.0
55367.0 557.0 0 206.41313927533008 290.0
55389.0 563.0 0 201.56521923306374 290.0
55410.0 559.0 0 196.7172991907974 290.0
55432.0 563.0 0 191.86937914853107 291.0
55452.0 563.0 0 187.02145910626473 291.0
55474.0 563.0 0 182.17353906399842 291.0
55495.0 557.0 0 177.32561902173208 292.0
55516.0 559.0 0 172.47769897946574 292.0
55537.0 557.0 0 167.62977893719943 292.0
55559.0 562.0 0 162.7818588949331 292.0
55580.0 562.0 0 157.93393885266676 292.0
55621.0 561.0 0 153.08601881040042 291.0
55643.0 327.0 0 148.23809876813408 290.0
55663.0 319.0 0 143.39017872586777 290.0
55685.0 317.0 0 138.5422586836014 289.0
55706.0 309.0 0 133.6943386413351 288.0
55728.0 307.0 0 128.84641859906876 288.0
55748.0 176.0 0 123.99849855680242 287.0
55770.0 195.0 0 119.15057851453611 286.0
55791.0 203.0 0 114.30265847226977 286.0
55813.0 215.0 0 109.45473843000343 285.0
55833.0 230.0 0 104.60681838773712 284.0
55855.0 230.0 0 99.75889834547078 284.0
55876.0 214.0 0 94.91097830320444 283.0
55898.0 212.0 0 90.0630582609381 283.0
55918.0 192.0 0 85.21513821867177 282.0
55940.0 171.0 0 80.36721817640546 281.0
55961.0 211.0 500 75.51929813413912 281.0
55982.0 192.0 0 70.6713780918728 280.0
56003.0 210.0 0 126.46038264412823 279.0
56025.0 195.0 0 182.24938719638368 279.0
56046.0 213.0 0 238.03839174863913 278.0
56067.0 213.0 0 293.8273963008945 277.0
56109.0 531.0 500 349.61640085314997 277.0
56129.0 345.0 0 405.4054054054054 277.0
56151.0 331.0 0 416.57799531815283 276.0
56172.0 329.0 0 427.7505852309002 276.0
56194.0 330.0 0 438.9231751436476 276.0
56214.0 330.0 0 450.095765056395 275.0
56236.0 564.0 500 461.26835496914237 275.0
56257.0 564.0 0 472.4409448818898 275.0
56279.0 557.0 0 458.3045664208596 275.0
56299.0 564.0 0 444.1681879598294 274.0
56321.0 563.0 0 430.0318094987992 274.0
56342.0 563.0 0 415.895431037769 274.0
56364.0 562.0 0 401.75905257673884 273.0
56384.0 563.0 0 387.62267411570866 273.0
56406.0 562.0 0 373.4862956546785 273.0
56427.0 559.0 0 359.34991719364825 272.0
56449.0 562.0 0 345.2135387326181 272.0
56469.0 562.0 0 331.0771602715879 272.0
56491.0 562.0 0 316.9407818105577 272.0
56512.0 557.0 0 302.80440334952755 271.0
56534.0 562.0 0 288.66802488849737 271.0
56554.0 563.0 0 274.5316464274672 271.0
56576.0 563.0 0 260.395267966437 271.0
56617.0 561.0 0 246.25888950540676 271.0
56638.0 326.0 0 232.12251104437658 271.0
56660.0 301.0 0 217.9861325833464 271.0
56680.0 308.0 0 203.84975412231626 271.0
56702.0 309.0 0 189.71337566128602 271.0
56723.0 310.0 0 175.57699720025585 271.0
56745.0 318.0 0 161.44061873922567 271.0
56765.0 255.0 0 147.3042402781955 271.0
56787.0 214.0 0 133.16786181716526 271.0
56808.0 561.0 500 119.03148335613508 271.0
56830.0 563.0 0 104.8951048951049 272.0
56850.0 563.0 0 103.89315517835995 272.0
56872.0 559.0 0 102.891205461615 272.0
56893.0 563.0 0 101.88925574487006 272.0
56915.0 563.0 0 100.88730602812511 272.0
56935.0 557.0 0 99.88535631138016 272.0
56957.0 557.0 0 98.88340659463522 272.0
56978.0 561.0 0 97.88145687789029 272.0
57000.0 561.0 0 96.87950716114534 272.0
57020.0 560.0 0 95.8775574444004 272.0
57042.0 561.0 0 94.87560772765545 272.0
57063.0 561.0 0 93.8736580109105 272.0
57085.0 561.0 0 92.87170829416556 273.0
57126.0 559.0 0 91.86975857742061 273.0
57147.0 322.0 0 90.86780886067567 273.0
57168.0 303.0 0 89.86585914393072 274.0
57189.0 301.0 0 88.86390942718577 274.0
57211.0 304.0 0 87.86195971044083 274.0
57232.0 304.0 0 86.86000999369588 274.0
57253.0 338.0 0 85.85806027695094 274.0
57274.0 412.0 0 84.85611056020599 275.0
57296.0 559.0 0 83.85416084346105 275.0
57316.0 562.0 0 82.8522111267161 275.0
57338.0 560.0 0 81.85026140997115 275.0
57359.0 557.0 0 80.84831169322622 275.0
57381.0 559.0 0 79.84636197648128 276.0
57401.0 559.0 0 78.84441225973632 276.0
57423.0 560.0 0 77.84246254299137 276.0
57444.0 561.0 0 76.84051282624644 276.0
57466.0 557.0 0 75.8385631095015 277.0
57486.0 560.0 0 74.83661339275655 277.0
57508.0 559.0 0 73.8346636760116 277.0
57529.0 560.0 0 72.83271395926666 277.0
57551.0 560.0 0 71.83076424252171 277.0
57571.0 560.0 0 70.82881452577676 277.0
57613.0 559.0 0 69.82686480903183 277.0
57633.0 328.0 0 68.82491509228689 277.0
57655.0 296.0 0 67.82296537554194 277.0
57676.0 302.0 0 66.821015658797 277.0
57698.0 297.0 0 65.81906594205205 277.0
57718.0 305.0 0 64.8171162253071 277.0
57740.0 277.0 0 63.81516650856215 277.0
57761.0 253.0 0 62.81321679181721 277.0
57783.0 254.0 0 61.811267075072266 277.0
57803.0 265.0 0 60.80931735832731 277.0
57825.0 228.0 0 59.80736764158237 277.0
57846.0 284.0 500 58.80541792483743 277.0
57867.0 286.0 0 57.80346820809248 277.0
57888.0 280.0 0 159.45032173628533 277.0
57910.0 197.0 0 261.09717526447815 277.0
57931.0 177.0 0 362.744028792671 277.0
57952.0 560.0 500 464.39088232086385 277.0
57973.0 560.0 0 566.0377358490566 277.0
57995.0 561.0 0 542.8830689320692 277.0
58016.0 562.0 0 519.7284020150819 277.0
58037.0 560.0 0 496.57373509809446 277.0
58058.0 557.0 0 473.41906818110704 277.0
58080.0 557.0 0 450.26440126411967 276.0
58121.0 557.0 0 427.1097343471323 276.0
58142.0 331.0 0 403.9550674301449 276.0
58164.0 308.0 0 380.80040051315746 276.0
58184.0 308.0 0 357.6457335961701 276.0
58206.0 313.0 0 334.4910666791827 276.0
58227.0 314.0 0 311.33639976219524 276.0
58249.0 270.0 0 288.18173284520793 276.0
58269.0 204.0 0 265.0270659282205 276.0
58291.0 211.0 0 241.87239901123314 276.0
58312.0 260.0 0 218.71773209424572 276.0
58334.0 214.0 0 195.56306517725835 276.0
58354.0 289.0 500 172.40839826027099 276.0
58376.0 273.0 0 149.2537313432836 276.0
58397.0 327.0 500 772.3012842762929 276.0
58419.0 311.0 0 1395.3488372093022 276.0
58439.0 287.0 0 1318.5562015503874 276.0
58461.0 311.0 0 1241.7635658914728 276.0
58482.0 339.0 0 1164.9709302325582 276.0
58503.0 557.0 0 1088.1782945736434 276.0
58524.0 559.0 0 1011.3856589147287 276.0
58546.0 558.0 0 934.5930232558139 276.0
58567.0 558.0 0 857.8003875968992 276.0
58608.0 558.0 0 781.0077519379845 276.0
58630.0 347.0 0 704.2151162790698 276.0
58650.0 317.0 0 627.422480620155 276.0
58672.0 317.0 0 550.6298449612403 276.0
58693.0 319.0 0 473.8372093023256 276.0
58715.0 320.0 0 397.0445736434109 276.0
58735.0 251.0 0 320.2519379844962 277.0
58757.0 295.0 500 243.45930232558135 277.0
58778.0 265.0 0 166.66666666666666 277.0
58800.0 348.0 500 781.0077519379844 277.0
58820.0 392.0 0 1395.3488372093022 277.0
58842.0 555.0 0 1335.0348623329958 277.0
58863.0 555.0 0 1274.7208874566893 277.0
58885.0 559.0 0 1214.406912580383 277.0
58905.0 559.0 0 1154.0929377040766 278.0
58927.0 559.0 0 1093.77896282777 278.0
58948.0 559.0 0 1033.4649879514636 278.0
58970.0 559.0 0 973.1510130751572 278.0
58990.0 557.0 0 912.8370381988507 278.0
59012.0 561.0 0 852.5230633225443 278.0
59033.0 559.0 0 792.2090884462378 278.0
59054.0 561.0 0 731.8951135699314 278.0
59075.0 561.0 0 671.581138693625 279.0
59116.0 558.0 0 611.2671638173184 279.0
59138.0 356.0 0 550.9531889410121 279.0
59159.0 310.0 0 490.6392140647056 279.0
59181.0 314.0 0 430.3252391883992 279.0
59201.0 319.0 0 370.01126431209264 279.0
59223.0 314.0 0 309.6972894357864 279.0
59244.0 268.0 0 249.3833145594799 279.0
59266.0 351.0 500 189.06933968317344 279.0
59286.0 560.0 0 128.75536480686696 279.0
59308.0 559.0 0 127.25332020247461 279.0
59329.0 557.0 0 125.75127559808226 279.0
59351.0 561.0 0 124.2492309936899 279.0
59371.0 559.0 0 122.74718638929755 279.0
59393.0 561.0 0 121.2451417849052 279.0
59414.0 559.0 0 119.74309718051285 279.0
59436.0 559.0 0 118.2410525761205 279.0
59456.0 562.0 0 116.73900797172814 279.0
59478.0 562.0 0 115.23696336733579 279.0
59499.0 562.0 0 113.73491876294344 279.0
59521.0 562.0 0 112.23287415855108 279.0
59541.0 559.0 0 110.73082955415873 279.0
59563.0 563.0 0 109.22878494976638 279.0
59584.0 563.0 0 107.72674034537401 280.0
59625.0 558.0 0 106.22469574098167 280.0
59647.0 347.0 0 104.72265113658932 281.0
59668.0 311.0 0 103.22060653219695 281.0
59689.0 307.0 0 101.7185619278046 281.0
59710.0 301.0 0 100.21651732341225 282.0
59732.0 309.0 0 98.7144727190199 282.0
59752.0 355.0 0 97.21242811462754 282.0
59774.0 426.0 0 95.71038351023519 282.0
59795.0 558.0 0 94.20833890584284 283.0
59817.0 562.0 0 92.70629430145048 283.0
59837.0 557.0 0 91.20424969705813 283.0
59859.0 564.0 0 89.70220509266578 284.0
59880.0 562.0 0 88.20016048827343 284.0
59902.0 563.0 0 86.69811588388106 284.0
59922.0 561.0 0 85.19607127948872 284.0
59944.0 564.0 0 83.69402667509637 285.0
59965.0 564.0 0 82.191982070704 285.0
59987.0 564.0 0 80.68993746631166 285.0
60007.0 557.0 0 79.1878928619193 286.0
60029.0 564.0 0 77.68584825752694 286.0
60050.0 564.0 0 76.18380365313459 286.0
60072.0 564.0 0 74.68175904874224 286.0
60113.0 563.0 0 73.17971444434988 286.0
60134.0 327.0 0 71.67766983995753 285.0
60155.0 300.0 0 70.17562523556518 285.0
60176.0 297.0 0 68.67358063117283 285.0
60198.0 303.0 0 67.17153602678047 284.0
60219.0 301.0 0 65.66949142238812 284.0
60240.0 291.0 0 64.16744681799577 283.0
60261.0 329.0 0 62.665402213603414 283.0
60283.0 277.0 0 61.16335760921106 283.0
60303.0 208.0 0 59.66131300481871 282.0
60325.0 298.0 500 58.159268400426356 282.0
60346.0 286.0 0 56.657223796033996 281.0
60368.0 258.0 0 106.47839259737276 281.0
60388.0 250.0 0 156.29956139871155 281.0
60410.0 208.0 0 206.12073020005033 280.0
60431.0 206.0 0 255.9418990013891 280.0
60453.0 183.0 0 305.7630678027279 280.0
60473.0 245.0 500 355.58423660406663 279.0
60495.0 186.0 0 405.4054054054054 279.0
60516.0 151.0 0 405.8650487221916 278.0
60538.0 123.0 0 406.3246920389778 278.0
60558.0 145.0 0 406.7843353557639 278.0
60580.0 145.0 0 407.2439786725501 278.0
60620.0 551.0 500 407.7036219893363 279.0
60642.0 335.0 0 408.16326530612247 280.0
60664.0 325.0 0 397.0646700238537 280.0
60685.0 319.0 0 385.966074741585 281.0
60705.0 318.0 0 374.8674794593162 281.0
60727.0 326.0 0 363.7688841770475 282.0
60748.0 487.0 0 352.6702888947787 283.0
60770.0 564.0 0 341.57169361251 283.0
60790.0 561.0 0 330.4730983302412 284.0
60812.0 563.0 0 319.37450304797244 284.0
60833.0 559.0 0 308.27590776570366 285.0
60855.0 559.0 0 297.17731248343495 286.0
60875.0 557.0 0 286.07871720116617 286.0
60897.0 562.0 0 274.98012191889745 287.0
60918.0 560.0 0 263.8815266366287 287.0
60939.0 560.0 0 252.78293135435993 288.0
60960.0 559.0 0 241.68433607209118 289.0
60982.0 559.0 0 230.58574078982244 289.0
61003.0 561.0 0 219.4871455075537 290.0
61024.0 558.0 0 208.38855022528492 290.0
61045.0 556.0 0 197.28995494301617 291.0
61067.0 556.0 0 186.19135966074742 291.0
61108.0 555.0 0 175.09276437847865 291.0
61129.0 323.0 0 163.9941690962099 290.0
61151.0 304.0 0 152.89557381394116 290.0
61171.0 306.0 0 141.79697853167244 290.0
61193.0 305.0 0 130.69838324940366 289.0
61214.0 304.0 0 119.59978796713489 289.0
61236.0 378.0 500 108.50119268486617 288.0
61256.0 558.0 0 97.40259740259741 288.0
61278.0 557.0 0 96.58815760510676 288.0
61299.0 561.0 0 95.77371780761612 287.0
61321.0 561.0 0 94.95927801012547 287.0
61341.0 561.0 0 94.14483821263482 287.0
61363.0 559.0 0 93.33039841514419 286.0
61384.0 562.0 0 92.51595861765354 286.0
61406.0 562.0 0 91.70151882016289 285.0
61426.0 559.0 0 90.88707902267225 285.0
61448.0 561.0 0 90.0726392251816 285.0
61469.0 563.0 0 89.25819942769095 284.0
61490.0 562.0 0 88.44375963020032 284.0
61511.0 559.0 0 87.62931983270967 283.0
61533.0 561.0 0 86.81488003521902 283.0
61554.0 562.0 0 86.00044023772838 283.0
61575.0 562.0 0 85.18600044023773 282.0
61617.0 555.0 0 84.37156064274708 282.0
61637.0 318.0 0 83.55712084525645 282.0
61659.0 299.0 0 82.7426810477658 282.0
61680.0 299.0 0 81.92824125027515 282.0
61702.0 309.0 0 81.11380145278451 282.0
61722.0 315.0 0 80.29936165529386 282.0
61744.0 334.0 0 79.48492185780322 282.0
61765.0 271.0 0 78.67048206031257 282.0
61787.0 295.0 0 77.85604226282193 282.0
61807.0 561.0 0 77.04160246533128 282.0
61829.0 561.0 0 76.22716266784064 282.0
61850.0 562.0 0 75.41272287035 282.0
61872.0 562.0 0 74.59828307285935 282.0
61892.0 562.0 0 73.7838432753687 282.0
61914.0 557.0 0 72.96940347787806 282.0
61935.0 561.0 0 72.15496368038741 282.0
61957.0 559.0 0 71.34052388289676 282.0
61977.0 559.0 0 70.52608408540613 282.0
61999.0 563.0 0 69.71164428791548 282.0
62020.0 557.0 0 68.89720449042483 282.0
62042.0 563.0 0 68.08276469293419 282.0
62062.0 561.0 0 67.26832489544354 282.0
62084.0 561.0 0 66.45388509795289 282.0
62125.0 557.0 0 65.63944530046226 282.0
62146.0 315.0 0 64.8250055029716 282.0
62168.0 306.0 0 64.01056570548096 282.0
62188.0 296.0 0 63.196125907990314 282.0
62210.0 301.0 0 62.38168611049967 282.0
62231.0 302.0 0 61.56724631300903 282.0
62253.0 298.0 0 60.75280651551839 282.0
62273.0 285.0 0 59.93836671802774 282.0
62295.0 223.0 0 59.12392692053709 282.0
62316.0 225.0 0 58.309487123046445 282.0
62338.0 259.0 0 57.4950473255558 282.0
62358.0 563.0 0 56.68060752806516 282.0
62380.0 564.0 0 55.86616773057451 282.0
62401.0 559.0 0 55.05172793308387 282.0
62422.0 555.0 0 54.237288135593225 282.0
62443.0 564.0 0 53.42284833810258 282.0
62465.0 564.0 0 52.60840854061193 282.0
62486.0 559.0 0 51.79396874312128 282.0
62507.0 559.0 0 50.97952894563064 282.0
62528.0 562.0 0 50.16508914814 282.0
62550.0 562.0 0 49.350649350649356 282.0
62571.0 562.0 0 48.536209553158706 281.0
62612.0 556.0 0 47.72176975566806 281.0
62634.0 328.0 0 46.90732995817742 281.0
62654.0 305.0 0 46.09289016068677 281.0
62676.0 305.0 0 45.27845036319612 280.0
62697.0 299.0 0 44.46401056570548 280.0
62719.0 302.0 0 43.649570768214836 280.0
62739.0 242.0 0 42.835130970724194 280.0
62761.0 223.0 0 42.02069117323355 280.0
62782.0 256.0 0 41.2062513757429 279.0
62803.0 270.0 0 40.39181157825226 279.0
62824.0 263.0 0 39.57737178076161 279.0
62846.0 200.0 0 38.76293198327097 279.0
62867.0 177.0 0 37.94849218578032 278.0
62888.0 383.0 500 37.134052388289675 278.0
62909.0 562.0 0 36.31961259079903 278.0
62931.0 557.0 0 44.46630347054076 278.0
62952.0 562.0 0 52.612994350282484 278.0
62973.0 563.0 0 60.75968523002421 277.0
62994.0 561.0 0 68.90637610976594 277.0
63016.0 557.0 0 77.05306698950767 277.0
63037.0 561.0 0 85.1997578692494 277.0
63058.0 561.0 0 93.34644874899112 277.0
63079.0 561.0 0 101.49313962873285 277.0
63120.0 562.0 0 109.63983050847457 278.0
63142.0 331.0 0 117.7865213882163 278.0
63163.0 305.0 0 125.93321226795803 279.0
63185.0 307.0 0 134.07990314769975 279.0
63205.0 314.0 0 142.22659402744148 280.0
63227.0 304.0 0 150.3732849071832 280.0
63248.0 484.0 500 158.51997578692493 281.0
63270.0 561.0 0 166.66666666666666 281.0
63290.0 562.0 0 164.55551751683214 281.0
63312.0 560.0 0 162.4443683669976 282.0
63333.0 557.0 0 160.33321921716308 282.0
63354.0 560.0 0 158.22207006732853 283.0
63375.0 559.0 0 156.110920917494 283.0
63397.0 560.0 0 153.99977176765947 284.0
63418.0 559.0 0 151.88862261782495 284.0
63439.0 560.0 0 149.7774734679904 285.0
63460.0 559.0 0 147.6663243181559 285.0
63482.0 560.0 0 145.55517516832134 286.0
63503.0 560.0 0 143.44402601848682 286.0
63524.0 559.0 0 141.33287686865228 287.0
63545.0 557.0 0 139.22172771881776 287.0
63567.0 557.0 0 137.11057856898321 287.0
63608.0 559.0 0 134.9994294191487 287.0
63629.0 327.0 0 132.88828026931418 287.0
63651.0 301.0 0 130.77713111947963 286.0
63671.0 301.0 0 128.6659819696451 286.0
63692.0 299.0 0 126.55483281981057 286.0
63714.0 303.0 0 124.44368366997604 286.0
63736.0 134.0 0 122.33253452014151 285.0
63756.0 220.0 500 120.22138537030698 285.0
63777.0 377.0 0 118.11023622047244 285.0
63799.0 90.0 0 401.32080264160527 285.0
63818.0 282.0 500 684.5313690627381 284.0
63840.0 210.0 0 967.741935483871 284.0
63861.0 371.0 500 1181.5453863465866 284.0
63883.0 120.0 0 1395.3488372093022 284.0
63903.0 372.0 500 1411.9601328903655 283.0
63925.0 204.0 0 1428.5714285714287 283.0
63946.0 240.0 0 1255.0066755674234 283.0
63968.0 230.0 0 1081.4419225634178 283.0
63988.0 106.0 0 907.8771695594126 282.0
64010.0 559.0 500 734.3124165554071 282.0
64031.0 561.0 0 560.7476635514018 282.0
64053.0 561.0 0 532.2005097706032 282.0
64073.0 561.0 0 503.6533559898046 281.0
64115.0 559.0 0 475.1062022090059 281.0
64136.0 337.0 0 446.5590484282073 281.0
64157.0 315.0 0 418.01189464740867 281.0
64179.0 319.0 0 389.46474086661 281.0
64200.0 310.0 0 360.91758708581136 281.0
64221.0 316.0 0 332.37043330501274 281.0
64242.0 297.0 0 303.8232795242141 280.0
64264.0 293.0 0 275.27612574341543 280.0
64285.0 340.0 500 246.7289719626168 280.0
64306.0 242.0 0 218.1818181818182 280.0
64327.0 234.0 0 457.95454545454544 280.0
64349.0 306.0 500 697.7272727272727 280.0
64369.0 289.0 0 937.5 280.0
64391.0 240.0 0 942.4603174603175 280.0
64412.0 281.0 500 947.4206349206349 279.0
64434.0 214.0 0 952.3809523809524 279.0
64454.0 276.0 500 1190.4761904761906 279.0
64476.0 319.0 0 1428.5714285714287 279.0
64497.0 208.0 0 1275.2083081753412 279.0
64519.0 203.0 0 1121.8451877792538 279.0
64539.0 203.0 0 968.4820673831664 279.0
64561.0 176.0 0 815.1189469870789 279.0
64582.0 176.0 0 661.7558265909913 278.0
64623.0 553.0 500 508.392706194904 278.0
64645.0 341.0 0 355.0295857988166 277.0
64666.0 322.0 0 343.86964845109645 277.0
64687.0 318.0 0 332.70971110337626 277.0
64708.0 323.0 0 321.54977375565613 276.0
64730.0 326.0 0 310.38983640793595 276.0
64751.0 307.0 0 299.2298990602158 276.0
64772.0 339.0 0 288.0699617124957 276.0
64793.0 302.0 0 276.9100243647755 275.0
64815.0 314.0 0 265.75008701705536 275.0
64836.0 281.0 0 254.59014966933518 275.0
64857.0 297.0 0 243.43021232161504 274.0
64878.0 302.0 0 232.27027497389489 274.0
64900.0 265.0 0 221.11033762617473 274.0
64920.0 271.0 0 209.95040027845457 274.0
64942.0 271.0 0 198.79046293073444 273.0
64963.0 326.0 500 187.63052558301428 273.0
64985.0 254.0 0 176.47058823529412 273.0
65005.0 247.0 0 430.1470588235294 272.0
65027.0 304.0 500 683.8235294117646 272.0
65048.0 333.0 0 937.5 272.0
65070.0 333.0 0 863.0952380952381 271.0
65111.0 547.0 500 788.6904761904763 271.0
65132.0 346.0 0 714.2857142857143 270.0
65153.0 325.0 0 670.1599558742416 270.0
65174.0 329.0 0 626.0341974627689 270.0
65196.0 329.0 0 581.9084390512962 269.0
65217.0 333.0 0 537.7826806398235 269.0
65238.0 286.0 0 493.6569222283508 268.0
65259.0 381.0 500 449.5311638168781 268.0
65281.0 560.0 0 405.4054054054054 268.0
65302.0 559.0 0 392.5665605993475 267.0
65323.0 560.0 0 379.7277157932896 267.0
65344.0 560.0 0 366.88887098723166 266.0
65366.0 558.0 0 354.05002618117373 266.0
65387.0 558.0 0 341.2111813751158 266.0
65408.0 556.0 0 328.3723365690579 265.0
65429.0 556.0 0 315.533491763 265.0
65451.0 560.0 0 302.69464695694205 265.0
65472.0 560.0 0 289.85580215088413 264.0
65493.0 559.0 0 277.0169573448262 264.0
65514.0 557.0 0 264.1781125387683 263.0
65536.0 557.0 0 251.33926773271037 263.0
65556.0 557.0 0 238.50042292665245 263.0
65578.0 557.0 0 225.66157812059453 263.0
65619.0 557.0 0 212.82273331453663 263.0
65640.0 329.0 0 199.98388850847869 263.0
65662.0 307.0 0 187.14504370242076 263.0
65683.0 309.0 0 174.30619889636282 264.0
65704.0 313.0 0 161.46735409030492 264.0
65725.0 310.0 0 148.628509284247 264.0
65747.0 561.0 500 135.78966447818908 264.0
65768.0 561.0 0 122.95081967213115 265.0
65789.0 558.0 0 121.57065567959275 265.0
65810.0 561.0 0 120.19049168705435 265.0
65832.0 562.0 0 118.81032769451595 265.0
65853.0 561.0 0 117.43016370197756 265.0
65874.0 562.0 0 116.04999970943916 266.0
65895.0 561.0 0 114.66983571690076 266.0
65917.0 558.0 0 113.28967172436236 266.0
65938.0 559.0 0 111.90950773182396 266.0
65959.0 562.0 0 110.52934373928557 266.0
65980.0 562.0 0 109.14917974674717 267.0
66002.0 559.0 0 107.76901575420877 267.0
66023.0 561.0 0 106.38885176167037 267.0
66044.0 562.0 0 105.00868776913198 267.0
66065.0 562.0 0 103.62852377659358 267.0
66087.0 562.0 0 102.24835978405518 268.0
66128.0 561.0 0 100.86819579151678 269.0
66149.0 330.0 0 99.48803179897838 269.0
66170.0 304.0 0 98.10786780643998 270.0
66191.0 304.0 0 96.7277038139016 271.0
66213.0 307.0 0 95.3475398213632 271.0
66234.0 308.0 0 93.9673758288248 272.0
66255.0 308.0 0 92.5872118362864 272.0
66276.0 308.0 0 91.207047843748 273.0
66298.0 123.0 0 89.8268838512096 273.0
66319.0 123.0 0 88.4467198586712 274.0
66340.0 123.0 0 87.0665558661328 274.0
66361.0 123.0 0 85.6863918735944 275.0
66383.0 123.0 0 84.306227881056 275.0
66404.0 123.0 0 82.9260638885176 276.0
66425.0 123.0 0 81.5458998959792 276.0
66446.0 123.0 0 80.16573590344082 277.0
66468.0 123.0 0 78.78557191090242 277.0
66489.0 123.0 0 77.40540791836403 278.0
66510.0 123.0 0 76.02524392582563 278.0
66531.0 123.0 0 74.64507993328724 279.0
66553.0 123.0 0 73.26491594074884 279.0
66573.0 123.0 0 71.88475194821044 279.0
66615.0 523.0 500 70.50458795567204 279.0
66635.0 335.0 0 69.12442396313364 278.0
66657.0 322.0 0 136.34384411625967 278.0
66678.0 322.0 0 203.56326426938568 277.0
66700.0 326.0 0 270.7826844225117 277.0
66720.0 321.0 0 338.00210457563776 276.0
66742.0 560.0 500 405.2215247287638 276.0
66763.0 562.0 0 472.4409448818898 276.0
66785.0 562.0 0 467.08574829914926 275.0
66805.0 563.0 0 461.73055171640874 275.0
66827.0 564.0 0 456.3753551336683 274.0
66848.0 562.0 0 451.02015855092776 274.0
66870.0 565.0 0 445.66496196818724 273.0
66890.0 562.0 0 440.3097653854467 273.0
66912.0 560.0 0 434.9545688027062 273.0
66933.0 564.0 0 429.59937221996574 272.0
66955.0 559.0 0 424.2441756372252 272.0
66975.0 562.0 0 418.8889790544847 271.0
66997.0 562.0 0 413.5337824717442 271.0
67018.0 560.0 0 408.17858588900367 270.0
67040.0 556.0 0 402.8233893062632 270.0
67060.0 555.0 0 397.4681927235227 270.0
67082.0 555.0 0 392.1129961407822 270.0
67123.0 561.0 0 386.75779955804165 270.0
67144.0 326.0 0 381.4026029753012 270.0
67166.0 304.0 0 376.0474063925607 270.0
67186.0 306.0 0 370.69220980982016 270.0
67208.0 296.0 0 365.33701322707964 270.0
67229.0 307.0 0 359.9818166443391 270.0
67251.0 329.0 0 354.6266200615986 270.0
67271.0 248.0 0 349.2714234788581 270.0
67293.0 263.0 0 343.9162268961176 270.0
67314.0 316.0 0 338.5610303133771 270.0
67336.0 308.0 0 333.20583373063664 271.0
67356.0 280.0 0 327.8506371478961 271.0
67378.0 244.0 0 322.4954405651556 271.0
67399.0 259.0 0 317.1402439824151 271.0
67421.0 486.0 0 311.78504739967457 271.0
67441.0 562.0 0 306.42985081693405 271.0
67463.0 561.0 0 301.07465423419353 271.0
