Time	ECG	ECG_Normalized	Heart_Rate	EDA
0.0 393.0 500 0.0 260.0
26.0 375.0 0 0.0 261.0
48.0 371.0 0 13.605442176870747 262.0
70.0 372.0 0 27.210884353741495 263.0
92.0 378.0 0 40.816326530612244 264.0
113.0 397.0 0 54.42176870748299 265.0
134.0 441.0 0 68.02721088435374 266.0
155.0 343.0 0 81.63265306122449 266.0
177.0 365.0 0 95.23809523809524 267.0
198.0 354.0 0 108.84353741496598 268.0
219.0 369.0 0 122.44897959183673 269.0
240.0 379.0 0 136.05442176870747 270.0
262.0 373.0 0 149.65986394557825 271.0
283.0 378.0 0 163.26530612244898 272.0
304.0 400.0 0 176.87074829931973 273.0
325.0 425.0 0 190.47619047619048 274.0
347.0 445.0 0 204.08163265306123 274.0
368.0 409.0 0 217.68707482993196 275.0
389.0 409.0 0 231.29251700680274 276.0
431.0 314.0 0 244.89795918367346 276.0
451.0 352.0 0 258.5034013605442 276.0
473.0 371.0 0 272.10884353741494 276.0
494.0 373.0 0 285.7142857142857 276.0
516.0 374.0 0 299.3197278911565 276.0
536.0 371.0 0 312.9251700680272 276.0
558.0 368.0 0 326.53061224489795 276.0
579.0 372.0 0 340.13605442176873 276.0
601.0 365.0 0 353.74149659863946 276.0
621.0 362.0 0 367.34693877551024 276.0
643.0 367.0 0 380.95238095238096 277.0
664.0 382.0 0 394.5578231292517 277.0
686.0 354.0 0 408.16326530612247 277.0
706.0 370.0 0 421.76870748299325 277.0
728.0 355.0 0 435.3741496598639 277.0
749.0 345.0 0 448.9795918367347 277.0
771.0 347.0 0 462.5850340136055 277.0
791.0 358.0 0 476.1904761904762 277.0
812.0 335.0 0 489.7959183673469 277.0
834.0 503.0 500 503.4013605442177 277.0
856.0 375.0 0 517.0068027210884 277.0
876.0 375.0 0 530.6122448979593 278.0
918.0 283.0 0 544.2176870748299 278.0
939.0 342.0 500 557.8231292517007 278.0
960.0 361.0 0 571.4285714285714 278.0
981.0 376.0 0 551.7190785934367 278.0
1003.0 392.0 0 532.0095857583019 278.0
1023.0 402.0 0 512.3000929231672 278.0
1045.0 429.0 0 492.5906000880325 278.0
1066.0 424.0 0 472.8811072528978 278.0
1088.0 403.0 0 453.171614417763 278.0
1108.0 375.0 0 433.46212158262824 278.0
1130.0 374.0 0 413.75262874749353 278.0
1151.0 359.0 0 394.04313591235876 278.0
1173.0 352.0 0 374.33364307722405 278.0
1193.0 339.0 0 354.6241502420893 278.0
1215.0 353.0 0 334.9146574069546 278.0
1236.0 348.0 0 315.20516457181986 278.0
1258.0 349.0 0 295.49567173668504 278.0
1278.0 344.0 0 275.78617890155033 278.0
1300.0 353.0 0 256.0766860664156 278.0
1321.0 340.0 0 236.3671932312809 278.0
1343.0 339.0 0 216.65770039614608 278.0
1363.0 344.0 0 196.94820756101137 278.0
1385.0 344.0 0 177.23871472587666 277.0
1426.0 267.0 0 157.5292218907419 276.0
1447.0 329.0 500 137.81972905560713 275.0
1469.0 324.0 0 118.11023622047244 274.0
1490.0 316.0 0 118.33026274100239 274.0
1511.0 330.0 0 118.55028926153233 273.0
1532.0 306.0 0 118.77031578206227 272.0
1554.0 325.0 0 118.99034230259221 272.0
1575.0 482.0 0 119.21036882312215 271.0
1596.0 319.0 0 119.4303953436521 270.0
1617.0 322.0 0 119.65042186418204 270.0
1639.0 316.0 0 119.87044838471198 269.0
1660.0 306.0 0 120.09047490524192 268.0
1681.0 323.0 0 120.31050142577186 268.0
1702.0 318.0 0 120.53052794630179 267.0
1724.0 343.0 0 120.75055446683173 266.0
1745.0 354.0 0 120.97058098736167 266.0
1766.0 391.0 0 121.19060750789161 265.0
1787.0 413.0 0 121.41063402842155 264.0
1809.0 406.0 0 121.6306605489515 264.0
1830.0 379.0 0 121.85068706948144 263.0
1851.0 353.0 0 122.07071359001138 262.0
1872.0 353.0 0 122.29074011054132 262.0
1913.0 261.0 0 122.51076663107126 261.0
1935.0 318.0 500 122.7307931516012 261.0
1956.0 320.0 0 122.95081967213115 261.0
1977.0 335.0 0 122.73027066614202 261.0
1998.0 322.0 0 122.50972166015289 261.0
2020.0 333.0 0 122.28917265416375 261.0
2041.0 324.0 0 122.06862364817462 261.0
2062.0 334.0 0 121.8480746421855 261.0
2083.0 300.0 0 121.62752563619637 261.0
2105.0 307.0 0 121.40697663020723 261.0
2126.0 274.0 0 121.1864276242181 260.0
2147.0 276.0 0 120.96587861822897 260.0
2168.0 302.0 0 120.74532961223984 260.0
2190.0 273.0 0 120.52478060625072 260.0
2211.0 294.0 0 120.30423160026157 260.0
2232.0 287.0 0 120.08368259427245 260.0
2253.0 309.0 0 119.86313358828332 260.0
2275.0 306.0 0 119.64258458229419 260.0
2296.0 306.0 0 119.42203557630506 260.0
2317.0 308.0 0 119.20148657031592 260.0
2338.0 386.0 0 118.9809375643268 260.0
2360.0 398.0 0 118.76038855833767 260.0
2380.0 398.0 0 118.53983955234854 260.0
2422.0 224.0 0 118.3192905463594 261.0
2444.0 297.0 500 118.09874154037027 261.0
2464.0 312.0 0 117.87819253438114 262.0
2486.0 321.0 0 117.88828139029816 262.0
2507.0 350.0 0 117.89837024621517 262.0
2528.0 389.0 0 117.90845910213218 263.0
2549.0 406.0 0 117.91854795804919 263.0
2571.0 417.0 0 117.92863681396621 264.0
2592.0 421.0 0 117.93872566988323 264.0
2613.0 389.0 0 117.94881452580023 265.0
2634.0 380.0 0 117.95890338171725 265.0
2656.0 368.0 0 117.96899223763425 266.0
2677.0 372.0 0 117.97908109355127 266.0
2698.0 373.0 0 117.98916994946829 267.0
2719.0 392.0 0 117.9992588053853 267.0
2741.0 384.0 0 118.00934766130231 268.0
2762.0 378.0 0 118.01943651721933 268.0
2783.0 383.0 0 118.02952537313634 269.0
2804.0 373.0 0 118.03961422905336 269.0
2826.0 371.0 0 118.04970308497036 269.0
2847.0 376.0 0 118.05979194088738 270.0
2868.0 384.0 0 118.0698807968044 270.0
2889.0 384.0 0 118.0799696527214 270.0
2930.0 322.0 0 118.09005850863842 270.0
2952.0 382.0 500 118.10014736455543 270.0
2973.0 389.0 0 118.11023622047244 270.0
2995.0 396.0 0 118.34173845685754 270.0
3015.0 368.0 0 118.57324069324264 270.0
3037.0 382.0 0 118.80474292962774 270.0
3058.0 355.0 0 119.03624516601283 270.0
3079.0 389.0 0 119.26774740239793 270.0
3100.0 526.0 0 119.49924963878301 270.0
3122.0 362.0 0 119.73075187516811 270.0
3143.0 393.0 0 119.96225411155321 270.0
3164.0 370.0 0 120.1937563479383 270.0
3185.0 380.0 0 120.4252585843234 270.0
3207.0 388.0 0 120.6567608207085 270.0
3228.0 389.0 0 120.8882630570936 270.0
3249.0 396.0 0 121.1197652934787 270.0
3270.0 407.0 0 121.35126752986379 270.0
3292.0 441.0 0 121.58276976624889 270.0
3313.0 453.0 0 121.81427200263398 270.0
3334.0 452.0 0 122.04577423901907 270.0
3355.0 424.0 0 122.27727647540416 270.0
3377.0 424.0 0 122.50877871178926 270.0
3418.0 329.0 0 122.74028094817436 270.0
3439.0 389.0 500 122.97178318455946 270.0
3461.0 387.0 0 123.20328542094455 270.0
3481.0 390.0 0 124.10194467930909 270.0
3503.0 388.0 0 125.00060393767363 271.0
3524.0 390.0 0 125.89926319603816 271.0
3546.0 387.0 0 126.79792245440271 271.0
3566.0 380.0 0 127.69658171276724 271.0
3588.0 379.0 0 128.59524097113177 271.0
3609.0 387.0 0 129.49390022949632 271.0
3630.0 390.0 0 130.39255948786086 272.0
3651.0 383.0 0 131.29121874622538 272.0
3673.0 394.0 0 132.18987800458993 272.0
3694.0 387.0 0 133.08853726295447 272.0
3715.0 380.0 0 133.987196521319 272.0
3736.0 401.0 0 134.88585577968354 272.0
3758.0 376.0 0 135.78451503804808 273.0
3779.0 373.0 0 136.68317429641263 273.0
3800.0 382.0 0 137.58183355477715 273.0
3821.0 382.0 0 138.4804928131417 273.0
3843.0 371.0 0 139.37915207150624 273.0
3864.0 524.0 500 140.27781132987076 273.0
3884.0 524.0 0 141.1764705882353 273.0
3926.0 306.0 0 335.08150248051027 273.0
3947.0 377.0 500 528.9865343727852 272.0
3968.0 375.0 0 722.8915662650602 272.0
3990.0 375.0 0 695.6330080448731 272.0
4011.0 384.0 0 668.374449824686 271.0
4032.0 401.0 0 641.115891604499 271.0
4053.0 401.0 0 613.8573333843119 271.0
4075.0 424.0 0 586.5987751641248 270.0
4096.0 433.0 0 559.3402169439378 270.0
4117.0 416.0 0 532.0816587237507 270.0
4138.0 390.0 0 504.8231005035636 269.0
4160.0 375.0 0 477.5645422833765 269.0
4180.0 365.0 0 450.30598406318944 269.0
4202.0 366.0 0 423.0474258430024 268.0
4223.0 352.0 0 395.7888676228153 268.0
4245.0 365.0 0 368.5303094026282 268.0
4265.0 347.0 0 341.27175118244116 267.0
4287.0 344.0 0 314.0131929622541 267.0
4308.0 343.0 0 286.75463474206697 267.0
4330.0 336.0 0 259.49607652187996 266.0
4350.0 325.0 0 232.23751830169283 266.0
4372.0 325.0 0 204.97896008150576 266.0
4413.0 257.0 0 177.7204018613187 266.0
4434.0 312.0 500 150.46184364113162 266.0
4456.0 340.0 0 123.20328542094455 267.0
4477.0 332.0 0 163.1291823262938 267.0
4498.0 307.0 0 203.05507923164305 268.0
4519.0 313.0 0 242.9809761369923 268.0
4541.0 319.0 0 282.90687304234154 268.0
4562.0 307.0 0 322.8327699476908 269.0
4583.0 454.0 500 362.75866685304004 269.0
4604.0 370.0 0 402.6845637583893 269.0
4626.0 314.0 0 387.93344519015665 270.0
4647.0 306.0 0 373.18232662192395 270.0
4668.0 319.0 0 358.4312080536913 270.0
4689.0 326.0 0 343.6800894854586 271.0
4711.0 314.0 0 328.92897091722597 271.0
4731.0 335.0 0 314.17785234899327 271.0
4753.0 335.0 0 299.4267337807606 272.0
4774.0 371.0 0 284.675615212528 272.0
4796.0 411.0 0 269.92449664429535 272.0
4816.0 381.0 0 255.17337807606265 273.0
4838.0 380.0 0 240.42225950782998 273.0
4859.0 291.0 0 225.6711409395973 273.0
4881.0 291.0 0 210.92002237136464 273.0
4922.0 239.0 0 196.168903803132 272.0
4943.0 305.0 500 181.41778523489933 271.0
4964.0 316.0 0 166.66666666666666 270.0
4985.0 282.0 0 166.63950898919123 270.0
5007.0 279.0 0 166.61235131171583 269.0
5028.0 270.0 0 166.5851936342404 268.0
5049.0 257.0 0 166.55803595676497 267.0
5070.0 267.0 0 166.53087827928954 267.0
5092.0 259.0 0 166.50372060181414 266.0
5113.0 272.0 0 166.4765629243387 265.0
5134.0 280.0 0 166.44940524686328 265.0
5155.0 275.0 0 166.42224756938788 264.0
5177.0 306.0 0 166.39508989191245 263.0
5198.0 278.0 0 166.36793221443702 262.0
5219.0 276.0 0 166.34077453696162 262.0
5240.0 271.0 0 166.3136168594862 261.0
5262.0 265.0 0 166.28645918201076 260.0
5283.0 265.0 0 166.25930150453533 260.0
5304.0 476.0 500 166.23214382705993 259.0
5325.0 344.0 0 166.2049861495845 258.0
5347.0 302.0 0 206.53136600900748 257.0
5367.0 298.0 0 246.85774586843047 257.0
5389.0 298.0 0 287.1841257278535 256.0
5430.0 243.0 0 327.5105055872765 256.0
5451.0 331.0 500 367.8368854466995 256.0
5473.0 358.0 0 408.16326530612247 256.0
5494.0 398.0 0 401.93924023740925 256.0
5515.0 419.0 0 395.715215168696 256.0
5536.0 442.0 0 389.49119009998276 256.0
5558.0 408.0 0 383.26716503126954 256.0
5579.0 382.0 0 377.04313996255627 256.0
5600.0 368.0 0 370.81911489384305 256.0
5621.0 363.0 0 364.5950898251298 256.0
5643.0 350.0 0 358.37106475641656 255.0
5664.0 360.0 0 352.14703968770334 255.0
5685.0 363.0 0 345.9230146189901 255.0
5706.0 360.0 0 339.69898955027685 255.0
5728.0 377.0 0 333.47496448156363 255.0
5749.0 354.0 0 327.25093941285036 255.0
5770.0 367.0 0 321.02691434413714 255.0
5791.0 370.0 0 314.8028892754239 255.0
5813.0 364.0 0 308.5788642067107 255.0
5833.0 364.0 0 302.35483913799743 255.0
5855.0 358.0 0 296.1308140692842 255.0
5876.0 358.0 0 289.90678900057094 255.0
5917.0 325.0 0 283.6827639318577 255.0
5939.0 357.0 0 277.4587388631445 255.0
5960.0 368.0 0 271.2347137944313 255.0
5981.0 370.0 0 265.010688725718 255.0
6002.0 458.0 0 258.7866636570048 255.0
6024.0 440.0 0 252.56263858829155 255.0
6045.0 355.0 0 246.3386135195783 255.0
6066.0 365.0 0 240.11458845086509 255.0
6087.0 386.0 0 233.8905633821518 255.0
6109.0 364.0 0 227.6665383134386 255.0
6129.0 397.0 0 221.44251324472535 255.0
6151.0 390.0 0 215.21848817601213 255.0
6172.0 400.0 0 208.99446310729888 255.0
6194.0 417.0 0 202.77043803858564 255.0
6214.0 436.0 0 196.54641296987242 255.0
6236.0 461.0 0 190.32238790115917 255.0
6257.0 453.0 0 184.09836283244593 255.0
6279.0 421.0 0 177.87433776373268 255.0
6299.0 413.0 0 171.65031269501947 255.0
6321.0 385.0 0 165.42628762630622 255.0
6342.0 394.0 0 159.20226255759297 255.0
6363.0 384.0 0 152.97823748887976 255.0
6384.0 384.0 0 146.75421242016648 256.0
6425.0 367.0 0 140.53018735145326 256.0
6447.0 396.0 0 134.30616228274005 256.0
6468.0 380.0 0 128.08213721402683 256.0
6490.0 401.0 0 121.85811214531356 256.0
6510.0 378.0 0 115.63408707660034 256.0
6532.0 378.0 0 109.41006200788712 256.0
6553.0 394.0 0 103.18603693917385 257.0
6575.0 389.0 0 96.96201187046063 257.0
6595.0 418.0 0 90.73798680174741 257.0
6617.0 408.0 0 84.51396173303414 257.0
6638.0 372.0 0 78.28993666432086 257.0
6660.0 370.0 0 72.0659115956077 257.0
6680.0 368.0 0 65.84188652689443 257.0
6702.0 355.0 0 59.61786145818115 257.0
6723.0 486.0 500 53.39383638946799 258.0
6745.0 463.0 0 47.16981132075472 258.0
6765.0 371.0 0 48.303543312252344 258.0
6787.0 379.0 0 49.43727530374997 258.0
6808.0 360.0 0 50.57100729524759 258.0
6828.0 384.0 0 51.704739286745216 258.0
6850.0 388.0 0 52.83847127824284 258.0
6872.0 388.0 0 53.97220326974047 259.0
6912.0 380.0 0 55.105935261238095 259.0
6934.0 418.0 0 56.239667252735714 260.0
6955.0 443.0 0 57.37339924423334 260.0
6976.0 443.0 0 58.50713123573097 261.0
6997.0 395.0 0 59.64086322722859 261.0
7019.0 377.0 0 60.77459521872622 262.0
7040.0 373.0 0 61.908327210223845 262.0
7061.0 356.0 0 63.04205920172147 263.0
7082.0 369.0 0 64.17579119321908 263.0
7104.0 374.0 0 65.30952318471671 264.0
7125.0 363.0 0 66.44325517621434 264.0
7146.0 364.0 0 67.57698716771196 265.0
7167.0 354.0 0 68.71071915920959 265.0
7189.0 355.0 0 69.84445115070721 265.0
7210.0 347.0 0 70.97818314220484 266.0
7231.0 350.0 0 72.11191513370247 266.0
7252.0 334.0 0 73.2456471252001 267.0
7274.0 336.0 0 74.37937911669772 267.0
7294.0 329.0 0 75.51311110819535 268.0
7316.0 344.0 0 76.64684309969297 268.0
7337.0 339.0 0 77.7805750911906 269.0
7359.0 351.0 0 78.91430708268823 269.0
7379.0 351.0 0 80.04803907418585 269.0
7421.0 260.0 0 81.18177106568346 268.0
7442.0 315.0 500 82.31550305718109 268.0
7463.0 312.0 0 83.44923504867872 267.0
7485.0 498.0 500 739.3990361289905 267.0
7506.0 367.0 0 1395.3488372093022 266.0
7527.0 319.0 0 1335.0348623329958 266.0
7548.0 318.0 0 1274.7208874566893 265.0
7570.0 309.0 0 1214.406912580383 265.0
7591.0 322.0 0 1154.0929377040766 264.0
7612.0 329.0 0 1093.77896282777 264.0
7633.0 337.0 0 1033.4649879514636 263.0
7655.0 331.0 0 973.1510130751572 263.0
7676.0 366.0 0 912.8370381988507 262.0
7697.0 397.0 0 852.5230633225443 262.0
7718.0 394.0 0 792.2090884462378 261.0
7740.0 382.0 0 731.8951135699314 261.0
7761.0 375.0 0 671.581138693625 260.0
7782.0 314.0 0 611.2671638173184 260.0
7803.0 323.0 0 550.9531889410121 259.0
7825.0 317.0 0 490.6392140647056 259.0
7845.0 310.0 0 430.3252391883992 258.0
7867.0 329.0 0 370.01126431209264 258.0
7888.0 329.0 0 309.6972894357864 258.0
7929.0 248.0 0 249.3833145594799 258.0
7951.0 303.0 500 189.06933968317344 258.0
7972.0 326.0 0 128.75536480686696 258.0
7993.0 302.0 0 137.63359421021627 258.0
8014.0 310.0 0 146.5118236135656 259.0
8036.0 333.0 0 155.39005301691492 259.0
8057.0 305.0 0 164.26828242026426 259.0
8078.0 325.0 0 173.14651182361357 259.0
8099.0 311.0 0 182.02474122696287 259.0
8121.0 311.0 0 190.9029706303122 259.0
8142.0 303.0 0 199.78120003366152 260.0
8163.0 308.0 0 208.65942943701086 260.0
8184.0 303.0 0 217.53765884036017 260.0
8206.0 391.0 500 226.4158882437095 260.0
8227.0 417.0 0 235.2941176470588 260.0
8248.0 304.0 0 230.62099532687768 261.0
8269.0 308.0 0 225.9478730066965 261.0
8291.0 313.0 0 221.27475068651538 261.0
8311.0 324.0 0 216.60162836633424 261.0
8333.0 332.0 0 211.9285060461531 261.0
8354.0 341.0 0 207.25538372597194 261.0
8376.0 341.0 0 202.5822614057908 262.0
8417.0 352.0 0 197.90913908560967 262.0
8438.0 406.0 0 193.23601676542853 263.0
8459.0 412.0 0 188.56289444524737 263.0
8480.0 379.0 0 183.88977212506623 264.0
8502.0 379.0 0 179.2166498048851 264.0
8523.0 333.0 0 174.54352748470393 265.0
8544.0 349.0 0 169.8704051645228 265.0
8565.0 355.0 0 165.19728284434166 265.0
8587.0 351.0 0 160.5241605241605 266.0
8608.0 359.0 0 155.85103820397939 266.0
8629.0 354.0 0 151.17791588379822 267.0
8650.0 358.0 0 146.50479356361706 267.0
8672.0 357.0 0 141.83167124343595 268.0
8693.0 347.0 0 137.15854892325478 268.0
8714.0 351.0 0 132.48542660307365 268.0
8735.0 342.0 0 127.8123042828925 269.0
8757.0 352.0 0 123.13918196271136 269.0
8778.0 344.0 0 118.46605964253021 270.0
8799.0 357.0 0 113.79293732234908 270.0
8820.0 357.0 0 109.11981500216793 270.0
8842.0 368.0 0 104.44669268198678 271.0
8863.0 353.0 0 99.77357036180564 271.0
8884.0 353.0 0 95.1004480416245 271.0
8926.0 300.0 0 90.42732572144334 271.0
8946.0 346.0 500 85.7542034012622 271.0
8968.0 544.0 0 81.08108108108108 271.0
8989.0 381.0 0 82.68095549209413 270.0
9011.0 347.0 0 84.28082990310718 270.0
9031.0 360.0 0 85.88070431412022 270.0
9053.0 361.0 0 87.48057872513327 270.0
9074.0 370.0 0 89.08045313614632 269.0
9095.0 376.0 0 90.68032754715935 269.0
9116.0 385.0 0 92.2802019581724 269.0
9138.0 393.0 0 93.88007636918545 269.0
9159.0 403.0 0 95.4799507801985 269.0
9180.0 433.0 0 97.07982519121154 268.0
9201.0 425.0 0 98.67969960222459 268.0
9223.0 423.0 0 100.27957401323764 268.0
9244.0 393.0 0 101.87944842425068 268.0
9265.0 368.0 0 103.47932283526373 268.0
9286.0 362.0 0 105.07919724627678 267.0
9308.0 359.0 0 106.67907165728982 267.0
9329.0 375.0 0 108.27894606830287 267.0
9350.0 340.0 0 109.87882047931592 267.0
9371.0 340.0 0 111.47869489032895 267.0
9393.0 340.0 0 113.078569301342 266.0
9434.0 271.0 0 114.67844371235505 265.0
9455.0 325.0 500 116.2783181233681 265.0
9477.0 314.0 0 117.87819253438114 265.0
9497.0 310.0 0 176.97198459229924 264.0
9519.0 324.0 0 236.06577665021734 264.0
9540.0 314.0 0 295.15956870813545 263.0
9561.0 292.0 0 354.25336076605356 263.0
9582.0 349.0 500 413.34715282397167 263.0
9604.0 310.0 0 472.4409448818898 262.0
9625.0 281.0 0 627.4606299212599 262.0
9646.0 335.0 500 782.4803149606299 262.0
9667.0 291.0 0 937.5 261.0
9689.0 342.0 500 1166.4244186046512 261.0
9710.0 399.0 0 1395.3488372093022 260.0
9731.0 385.0 0 1253.9283469516026 260.0
9752.0 316.0 0 1112.5078566939032 260.0
9774.0 236.0 0 971.0873664362036 259.0
9795.0 264.0 0 829.6668761785041 259.0
9816.0 253.0 0 688.2463859208045 259.0
9837.0 350.0 500 546.825895663105 258.0
9859.0 306.0 0 405.4054054054054 258.0
9880.0 306.0 0 394.20341394025604 258.0
9921.0 333.0 0 383.00142247510666 260.0
9942.0 348.0 0 371.79943100995735 261.0
9963.0 437.0 0 360.59743954480797 262.0
9984.0 334.0 0 349.3954480796586 264.0
10006.0 328.0 0 338.1934566145093 265.0
10027.0 371.0 500 326.9914651493599 266.0
10048.0 348.0 0 315.7894736842105 267.0
10069.0 302.0 0 328.20305798052175 268.0
10091.0 327.0 0 340.61664227683303 269.0
10111.0 445.0 0 353.03022657314426 270.0
10133.0 361.0 0 365.44381086945555 272.0
10154.0 297.0 0 377.8573951657668 273.0
10176.0 358.0 500 390.270979462078 274.0
10196.0 477.0 0 402.6845637583893 275.0
10218.0 286.0 0 585.9166932992437 276.0
10239.0 350.0 500 769.148822840098 277.0
10261.0 374.0 0 952.3809523809524 279.0
10281.0 474.0 0 890.7563025210084 280.0
10303.0 295.0 0 829.1316526610644 281.0
10324.0 363.0 500 767.5070028011205 282.0
10346.0 379.0 0 705.8823529411765 283.0
10366.0 491.0 0 659.9439775910364 284.0
10388.0 491.0 0 614.0056022408963 284.0
10429.0 342.0 0 568.0672268907563 282.0
10450.0 393.0 500 522.1288515406162 282.0
10472.0 377.0 0 476.1904761904762 281.0
10493.0 413.0 0 458.0026455026455 280.0
10514.0 417.0 0 439.81481481481484 279.0
10535.0 398.0 0 421.62698412698415 279.0
10557.0 402.0 0 403.4391534391535 278.0
10578.0 463.0 0 385.25132275132273 277.0
10599.0 507.0 0 367.06349206349205 276.0
10620.0 454.0 0 348.87566137566137 276.0
10642.0 522.0 500 330.6878306878307 275.0
10663.0 398.0 0 312.5 274.0
10684.0 382.0 0 304.05405405405406 273.0
10705.0 400.0 0 295.6081081081081 273.0
10727.0 399.0 0 287.1621621621622 272.0
10747.0 412.0 0 278.7162162162162 271.0
10769.0 404.0 0 270.27027027027026 270.0
10790.0 403.0 0 261.8243243243243 269.0
10812.0 389.0 0 253.3783783783784 269.0
10832.0 410.0 0 244.93243243243245 268.0
10854.0 494.0 0 236.4864864864865 267.0
10875.0 494.0 0 228.04054054054055 267.0
10916.0 432.0 0 219.59459459459458 267.0
10938.0 477.0 500 211.14864864864865 267.0
10959.0 483.0 0 202.7027027027027 268.0
10980.0 452.0 0 202.65395265395267 268.0
11001.0 471.0 0 202.6052026052026 268.0
11023.0 563.0 0 202.55645255645257 268.0
11044.0 544.0 0 202.5077025077025 269.0
11065.0 491.0 0 202.45895245895247 269.0
11086.0 446.0 0 202.4102024102024 269.0
11108.0 474.0 0 202.36145236145236 269.0
11129.0 470.0 0 202.31270231270233 270.0
11150.0 433.0 0 202.26395226395226 270.0
11171.0 462.0 0 202.21520221520223 270.0
11193.0 452.0 0 202.16645216645216 270.0
11214.0 440.0 0 202.11770211770212 271.0
11235.0 493.0 500 202.06895206895206 271.0
11256.0 468.0 0 202.02020202020202 271.0
11278.0 429.0 0 452.14045214045217 271.0
11298.0 478.0 500 702.2607022607024 272.0
11320.0 349.0 0 952.3809523809524 272.0
11341.0 425.0 500 1173.8648947951274 272.0
11363.0 371.0 0 1395.3488372093022 272.0
11383.0 371.0 0 1189.3687707641195 273.0
11425.0 301.0 0 983.3887043189368 273.0
11446.0 419.0 500 777.4086378737542 273.0
11467.0 380.0 0 571.4285714285714 274.0
11489.0 316.0 0 693.452380952381 274.0
11510.0 374.0 500 815.4761904761905 274.0
11531.0 317.0 0 937.5 274.0
11552.0 264.0 0 879.5955882352941 275.0
11574.0 225.0 0 821.6911764705883 275.0
11595.0 269.0 500 763.7867647058823 275.0
11616.0 340.0 0 705.8823529411765 275.0
11637.0 364.0 0 663.5960044395116 276.0
11659.0 232.0 0 621.3096559378469 276.0
11680.0 246.0 0 579.023307436182 276.0
11701.0 199.0 0 536.7369589345171 276.0
11722.0 199.0 0 494.4506104328524 277.0
11744.0 210.0 0 452.1642619311876 277.0
11765.0 290.0 0 409.8779134295228 277.0
11786.0 186.0 0 367.5915649278579 277.0
11807.0 264.0 500 325.3052164261931 278.0
11829.0 289.0 0 283.0188679245283 278.0
11849.0 291.0 0 303.41662417134114 278.0
11871.0 288.0 0 323.81438041815403 278.0
11892.0 288.0 0 344.21213666496686 278.0
11933.0 114.0 0 364.6098929117797 278.0
11955.0 162.0 500 385.0076491585926 278.0
11976.0 171.0 0 405.4054054054054 277.0
11997.0 178.0 0 416.57799531815283 277.0
12018.0 184.0 0 427.7505852309002 277.0
12040.0 165.0 0 438.9231751436476 277.0
12061.0 155.0 0 450.095765056395 277.0
12082.0 208.0 500 461.26835496914237 276.0
12103.0 183.0 0 472.4409448818898 276.0
12125.0 184.0 0 457.5034738304771 276.0
12146.0 210.0 0 442.5660027790644 276.0
12167.0 211.0 0 427.6285317276517 276.0
12188.0 223.0 0 412.691060676239 275.0
12210.0 220.0 0 397.7535896248263 275.0
12231.0 215.0 0 382.81611857341363 275.0
12252.0 404.0 500 367.87864752200096 275.0
12273.0 297.0 0 352.94117647058823 275.0
12295.0 260.0 0 353.23952066033513 274.0
12316.0 275.0 0 353.53786485008203 274.0
12337.0 254.0 0 353.83620903982893 274.0
12358.0 255.0 0 354.1345532295759 274.0
12380.0 255.0 0 354.4328974193228 274.0
12421.0 337.0 500 354.7312416090697 274.0
12442.0 440.0 0 355.0295857988166 274.0
12463.0 414.0 0 345.05163011950344 274.0
12484.0 444.0 0 335.0736744401903 275.0
12506.0 465.0 0 325.09571876087716 275.0
12527.0 443.0 0 315.117763081564 275.0
12548.0 420.0 0 305.1398074022508 275.0
12569.0 410.0 0 295.1618517229377 275.0
12591.0 429.0 0 285.18389604362454 276.0
12612.0 433.0 0 275.2059403643114 276.0
12633.0 408.0 0 265.22798468499826 276.0
12654.0 393.0 0 255.25002900568512 276.0
12676.0 513.0 500 245.27207332637198 277.0
12697.0 464.0 0 235.2941176470588 277.0
12718.0 448.0 0 474.3230625583567 277.0
12739.0 492.0 500 713.3520074696545 277.0
12761.0 441.0 0 952.3809523809524 277.0
12782.0 451.0 0 903.3028253083963 278.0
12803.0 480.0 0 854.2246982358404 278.0
12824.0 419.0 0 805.1465711632843 278.0
12846.0 438.0 0 756.0684440907282 278.0
12867.0 499.0 0 706.9903170181722 278.0
12888.0 499.0 0 657.9121899456161 279.0
12929.0 390.0 0 608.8340628730601 279.0
12950.0 394.0 0 559.7559358005041 279.0
12971.0 401.0 0 510.677808727948 279.0
12993.0 379.0 0 461.599681655392 279.0
13013.0 398.0 0 412.52155458283596 279.0
13035.0 436.0 0 363.4434275102799 279.0
13056.0 483.0 0 314.3653004377238 279.0
13078.0 381.0 0 265.28717336516786 279.0
13098.0 475.0 500 216.2090462926118 279.0
13120.0 463.0 0 167.13091922005572 279.0
13141.0 344.0 0 419.1129205056782 279.0
13163.0 394.0 500 671.0949217913006 279.0
13183.0 397.0 0 923.0769230769231 279.0
13205.0 337.0 0 847.9709267110842 279.0
13226.0 337.0 0 772.8649303452453 279.0
13247.0 322.0 0 697.7589339794065 279.0
13268.0 283.0 0 622.6529376135676 279.0
13290.0 361.0 500 547.5469412477287 279.0
13311.0 379.0 0 472.4409448818898 279.0
13332.0 449.0 0 461.72799828592855 279.0
13353.0 427.0 0 451.0150516899673 279.0
13375.0 427.0 0 440.30210509400615 278.0
13416.0 325.0 0 429.5891584980449 278.0
13437.0 375.0 500 418.8762119020837 278.0
13459.0 478.0 0 408.16326530612247 278.0
13479.0 480.0 0 482.59303721488595 278.0
13501.0 328.0 0 557.0228091236495 278.0
13522.0 380.0 500 631.452581032413 278.0
13544.0 378.0 0 705.8823529411765 278.0
13564.0 411.0 0 705.8823529411765 278.0
13586.0 362.0 0 705.8823529411765 278.0
13607.0 418.0 500 705.8823529411765 278.0
13628.0 407.0 0 705.8823529411765 277.0
13649.0 421.0 0 670.6578489383919 277.0
13671.0 416.0 0 635.4333449356074 277.0
13692.0 425.0 0 600.2088409328228 277.0
13713.0 431.0 0 564.9843369300382 277.0
13734.0 438.0 0 529.7598329272537 277.0
13756.0 418.0 0 494.5353289244691 277.0
13777.0 341.0 0 459.3108249216846 277.0
13798.0 366.0 0 424.08632091890007 277.0
13819.0 400.0 0 388.8618169161155 277.0
13841.0 332.0 0 353.637312913331 277.0
13862.0 347.0 0 318.41280891054646 277.0
13883.0 347.0 0 283.18830490776185 277.0
13925.0 282.0 0 247.9638009049773 277.0
13945.0 366.0 500 212.7392969021928 278.0
13967.0 345.0 0 177.5147928994083 278.0
13988.0 314.0 0 309.60668290985035 278.0
14010.0 298.0 0 441.6985729202924 279.0
14030.0 426.0 500 573.7904629307345 279.0
14052.0 404.0 0 705.8823529411765 279.0
14073.0 316.0 0 676.1785151001811 280.0
14095.0 328.0 0 646.4746772591857 280.0
14115.0 314.0 0 616.7708394181903 280.0
14137.0 327.0 0 587.0670015771949 281.0
14158.0 329.0 0 557.3631637361996 281.0
14180.0 382.0 0 527.6593258952041 281.0
14200.0 356.0 0 497.9554880542088 282.0
14222.0 370.0 0 468.25165021321334 282.0
14243.0 390.0 0 438.547812372218 282.0
14264.0 411.0 0 408.8439745312226 283.0
14285.0 393.0 0 379.14013669022717 283.0
14307.0 384.0 0 349.43629884923183 283.0
14328.0 376.0 0 319.73246100823644 284.0
14349.0 346.0 0 290.02862316724105 284.0
14370.0 354.0 0 260.32478532624566 284.0
14392.0 354.0 0 230.62094748525027 284.0
14433.0 258.0 0 200.91710964425488 284.0
14454.0 347.0 500 171.21327180325954 284.0
14476.0 368.0 0 141.50943396226415 284.0
14496.0 349.0 0 178.82016679028203 284.0
14518.0 330.0 0 216.1308996182999 284.0
14539.0 324.0 0 253.44163244631778 284.0
14561.0 322.0 0 290.75236527433566 283.0
14581.0 315.0 0 328.06309810235354 283.0
14603.0 489.0 500 365.3738309303714 283.0
14624.0 357.0 0 402.6845637583893 283.0
14646.0 313.0 0 435.3551981765228 283.0
14666.0 294.0 0 468.0258325946562 283.0
14688.0 265.0 0 500.6964670127897 283.0
14709.0 308.0 500 533.3671014309232 282.0
14731.0 344.0 0 566.0377358490566 282.0
14751.0 310.0 0 535.1850352255243 282.0
14773.0 347.0 0 504.3323346019921 282.0
14794.0 380.0 0 473.4796339784598 282.0
14815.0 393.0 0 442.62693335492753 282.0
14836.0 406.0 0 411.7742327313953 282.0
14858.0 366.0 0 380.921532107863 282.0
14879.0 366.0 0 350.06883148433076 282.0
14920.0 225.0 0 319.21613086079844 282.0
14942.0 303.0 500 288.3634302372662 282.0
14962.0 323.0 0 257.51072961373393 282.0
14984.0 325.0 0 369.6036354455946 282.0
15005.0 262.0 0 481.6965412774552 282.0
15027.0 303.0 500 593.7894471093158 282.0
15047.0 359.0 0 705.8823529411765 282.0
15069.0 332.0 0 662.9570747217806 282.0
15090.0 314.0 0 620.0317965023847 282.0
15112.0 276.0 0 577.1065182829889 282.0
15132.0 274.0 0 534.181240063593 282.0
15154.0 266.0 0 491.25596184419715 282.0
15175.0 471.0 500 448.3306836248013 282.0
15197.0 325.0 0 405.4054054054054 282.0
15217.0 269.0 0 395.1825076575291 282.0
15239.0 246.0 0 384.9596099096527 282.0
15260.0 239.0 0 374.7367121617764 282.0
15282.0 262.0 0 364.51381441390004 282.0
15302.0 284.0 0 354.29091666602375 282.0
15324.0 305.0 0 344.0680189181474 282.0
15345.0 281.0 0 333.84512117027106 282.0
15367.0 320.0 0 323.6222234223947 282.0
15387.0 320.0 0 313.39932567451837 282.0
15429.0 328.0 0 303.176427926642 282.0
15450.0 315.0 0 292.9535301787657 282.0
15471.0 295.0 0 282.7306324308894 282.0
15493.0 327.0 0 272.50773468301304 282.0
15513.0 297.0 0 262.2848369351367 282.0
15535.0 273.0 0 252.06193918726035 282.0
15556.0 292.0 0 241.839041439384 282.0
15578.0 281.0 0 231.6161436915077 282.0
15598.0 296.0 0 221.3932459436313 282.0
15620.0 373.0 0 211.170348195755 282.0
15641.0 297.0 0 200.94745044787865 281.0
15663.0 285.0 0 190.72455270000233 281.0
15683.0 262.0 0 180.50165495212596 281.0
15705.0 290.0 0 170.27875720424964 281.0
15726.0 269.0 0 160.0558594563733 281.0
15748.0 277.0 0 149.83296170849698 281.0
15768.0 427.0 0 139.6100639606206 281.0
15790.0 287.0 0 129.38716621274426 281.0
15811.0 275.0 0 119.16426846486797 281.0
15833.0 255.0 0 108.94137071699163 281.0
15853.0 322.0 500 98.71847296911528 281.0
15875.0 322.0 0 88.49557522123894 281.0
15915.0 237.0 0 297.0922882427307 281.0
15937.0 298.0 500 505.6890012642225 281.0
15958.0 359.0 0 714.2857142857143 282.0
15980.0 322.0 0 793.6507936507937 282.0
16000.0 366.0 500 873.015873015873 282.0
16022.0 409.0 0 952.3809523809524 282.0
16043.0 298.0 0 873.8528968634434 283.0
16064.0 294.0 0 795.3248413459344 283.0
16085.0 299.0 0 716.7967858284254 283.0
16107.0 301.0 0 638.2687303109165 283.0
16128.0 294.0 0 559.7406747934074 284.0
16149.0 336.0 500 481.21261927589836 284.0
16170.0 286.0 0 402.6845637583893 284.0
16192.0 340.0 500 899.0167004838459 284.0
16213.0 363.0 0 1395.3488372093022 285.0
16234.0 322.0 0 1289.9735313212698 285.0
16255.0 336.0 0 1184.5982254332373 285.0
16277.0 335.0 0 1079.2229195452048 285.0
16298.0 348.0 0 973.8476136571722 286.0
16319.0 408.0 0 868.4723077691398 286.0
16340.0 447.0 0 763.0970018811073 286.0
16362.0 346.0 0 657.7216959930748 286.0
16383.0 346.0 0 552.3463901050422 287.0
16424.0 309.0 0 446.9710842170098 287.0
16446.0 382.0 500 341.5957783289773 287.0
16466.0 400.0 0 236.2204724409449 287.0
16488.0 408.0 0 231.0948505174227 287.0
16509.0 438.0 0 225.9692285939005 287.0
16531.0 445.0 0 220.84360667037834 287.0
16551.0 461.0 0 215.71798474685613 287.0
16573.0 451.0 0 210.59236282333396 287.0
16594.0 419.0 0 205.46674089981178 287.0
16615.0 407.0 0 200.34111897628958 287.0
16636.0 441.0 0 195.2154970527674 288.0
16658.0 398.0 0 190.0898751292452 288.0
16679.0 428.0 0 184.96425320572303 288.0
16700.0 415.0 0 179.83863128220082 288.0
16721.0 447.0 0 174.71300935867865 288.0
16743.0 420.0 0 169.58738743515647 288.0
16764.0 451.0 0 164.46176551163427 288.0
16785.0 451.0 0 159.3361435881121 288.0
16806.0 454.0 0 154.21052166458992 288.0
16828.0 426.0 0 149.08489974106772 288.0
16849.0 423.0 0 143.9592778175455 288.0
16870.0 432.0 0 138.83365589402334 288.0
16891.0 432.0 0 133.70803397050116 288.0
16932.0 475.0 500 128.58241204697896 287.0
16954.0 417.0 0 123.45679012345678 287.0
16975.0 440.0 0 122.87423539692142 286.0
16997.0 428.0 0 122.29168067038604 286.0
17017.0 445.0 0 121.70912594385068 285.0
17039.0 425.0 0 121.12657121731532 285.0
17060.0 461.0 0 120.54401649077995 284.0
17082.0 444.0 0 119.96146176424458 284.0
17102.0 470.0 0 119.37890703770921 283.0
17124.0 482.0 0 118.79635231117385 283.0
17145.0 475.0 0 118.21379758463848 282.0
17166.0 460.0 0 117.6312428581031 281.0
17187.0 440.0 0 117.04868813156774 281.0
17209.0 457.0 0 116.46613340503238 280.0
17230.0 409.0 0 115.883578678497 280.0
17251.0 424.0 0 115.30102395196164 279.0
17272.0 432.0 0 114.71846922542628 279.0
17294.0 416.0 0 114.13591449889091 278.0
17315.0 449.0 0 113.55335977235553 278.0
17336.0 416.0 0 112.97080504582017 277.0
17357.0 437.0 0 112.38825031928481 277.0
17379.0 437.0 0 111.80569559274943 276.0
17420.0 365.0 0 111.22314086621407 276.0
17441.0 395.0 0 110.6405861396787 275.0
17463.0 375.0 0 110.05803141314334 275.0
17483.0 425.0 500 109.47547668660796 275.0
17505.0 461.0 0 108.8929219600726 274.0
17526.0 347.0 0 109.83875257182471 274.0
17548.0 364.0 0 110.78458318357683 274.0
17568.0 371.0 0 111.73041379532894 273.0
17590.0 358.0 0 112.67624440708104 273.0
17611.0 367.0 0 113.62207501883316 273.0
17633.0 374.0 0 114.56790563058527 272.0
17653.0 369.0 0 115.51373624233739 272.0
17675.0 392.0 0 116.4595668540895 272.0
17696.0 410.0 0 117.40539746584162 271.0
17717.0 406.0 0 118.35122807759373 271.0
17738.0 392.0 0 119.29705868934585 271.0
17760.0 368.0 0 120.24288930109795 270.0
17781.0 363.0 0 121.18871991285006 270.0
17802.0 317.0 0 122.13455052460218 270.0
17823.0 324.0 0 123.08038113635429 269.0
17845.0 351.0 0 124.0262117481064 269.0
17866.0 307.0 0 124.9720423598585 269.0
17887.0 307.0 0 125.91787297161062 268.0
17929.0 294.0 0 126.86370358336274 268.0
17949.0 348.0 500 127.80953419511485 267.0
17971.0 303.0 0 128.75536480686696 267.0
17992.0 297.0 0 215.15382455577395 266.0
18014.0 284.0 0 301.55228430468094 266.0
18034.0 281.0 0 387.95074405358787 266.0
18056.0 389.0 500 474.3492038024949 265.0
18077.0 406.0 0 560.7476635514018 265.0
18099.0 287.0 0 537.0260548107682 264.0
18119.0 293.0 0 513.3044460701345 264.0
18141.0 293.0 0 489.5828373295009 264.0
18162.0 306.0 0 465.8612285888673 263.0
18184.0 282.0 0 442.1396198482336 263.0
18204.0 302.0 0 418.41801110759997 263.0
18226.0 333.0 0 394.69640236696637 262.0
18247.0 350.0 0 370.9747936263327 262.0
18269.0 371.0 0 347.25318488569906 261.0
18289.0 350.0 0 323.5315761450654 261.0
18311.0 357.0 0 299.80996740443175 261.0
18332.0 322.0 0 276.0883586637981 260.0
18353.0 305.0 0 252.3667499231645 260.0
18374.0 305.0 0 228.6451411825309 260.0
18415.0 193.0 0 204.92353244189724 261.0
18437.0 247.0 500 181.20192370126358 262.0
18458.0 231.0 0 157.48031496062993 263.0
18480.0 247.0 0 155.76857240671004 264.0
18500.0 256.0 0 154.05682985279014 265.0
18522.0 274.0 0 152.34508729887025 266.0
18543.0 278.0 0 150.63334474495036 267.0
18565.0 257.0 0 148.92160219103047 268.0
18585.0 236.0 0 147.20985963711058 268.0
18607.0 240.0 0 145.4981170831907 269.0
18628.0 253.0 0 143.7863745292708 270.0
18650.0 396.0 0 142.0746319753509 271.0
18670.0 344.0 0 140.36288942143102 272.0
18692.0 241.0 0 138.65114686751113 273.0
18713.0 215.0 0 136.93940431359124 274.0
18735.0 220.0 0 135.22766175967135 275.0
18755.0 242.0 0 133.51591920575146 276.0
18777.0 235.0 0 131.80417665183157 276.0
18798.0 255.0 0 130.09243409791168 277.0
18819.0 275.0 0 128.3806915439918 278.0
18840.0 306.0 0 126.6689489900719 279.0
18862.0 337.0 0 124.957206436152 280.0
18883.0 337.0 0 123.24546388223212 280.0
18924.0 232.0 0 121.53372132831223 280.0
18945.0 280.0 500 119.82197877439233 279.0
18966.0 279.0 0 118.11023622047244 279.0
18987.0 295.0 0 116.98242831048478 278.0
19009.0 301.0 0 115.85462040049713 278.0
19030.0 283.0 0 114.72681249050946 278.0
19051.0 283.0 0 113.59900458052181 277.0
19072.0 307.0 0 112.47119667053414 277.0
19094.0 328.0 0 111.34338876054647 277.0
19115.0 323.0 0 110.21558085055882 276.0
19136.0 295.0 0 109.08777294057116 276.0
19157.0 292.0 0 107.9599650305835 275.0
19179.0 303.0 0 106.83215712059584 275.0
19200.0 314.0 0 105.70434921060817 275.0
19221.0 344.0 0 104.57654130062052 274.0
19242.0 428.0 0 103.44873339063285 274.0
19264.0 329.0 0 102.3209254806452 273.0
19285.0 326.0 0 101.19311757065753 273.0
19306.0 320.0 0 100.06530966066987 273.0
19327.0 325.0 0 98.93750175068222 272.0
19349.0 324.0 0 97.80969384069455 272.0
19369.0 333.0 0 96.6818859307069 272.0
19391.0 333.0 0 95.55407802071923 271.0
19433.0 346.0 0 94.42627011073156 271.0
19453.0 401.0 0 93.29846220074391 271.0
19475.0 394.0 0 92.17065429075625 271.0
19496.0 380.0 0 91.0428463807686 271.0
19517.0 347.0 0 89.91503847078093 271.0
19538.0 343.0 0 88.78723056079326 271.0
19560.0 368.0 0 87.65942265080561 271.0
19581.0 379.0 0 86.53161474081794 271.0
19602.0 411.0 0 85.40380683083029 271.0
19623.0 379.0 0 84.27599892084262 271.0
19645.0 383.0 0 83.14819101085496 271.0
19666.0 472.0 0 82.0203831008673 271.0
19687.0 397.0 0 80.89257519087965 271.0
19708.0 445.0 500 79.76476728089199 271.0
19730.0 334.0 0 78.63695937090432 271.0
19751.0 418.0 500 736.9928982901033 271.0
19772.0 329.0 0 1395.3488372093022 271.0
19793.0 412.0 500 1411.9601328903655 271.0
19815.0 496.0 0 1428.5714285714287 271.0
19836.0 332.0 0 1264.8809523809525 271.0
19857.0 382.0 500 1101.1904761904761 271.0
19878.0 382.0 0 937.5 271.0
19919.0 350.0 0 863.0952380952381 271.0
19941.0 395.0 500 788.6904761904763 271.0
19962.0 409.0 0 714.2857142857143 272.0
19984.0 435.0 0 684.5276964122465 272.0
20004.0 460.0 0 654.7696785387787 272.0
20026.0 480.0 0 625.011660665311 273.0
20047.0 443.0 0 595.2536427918432 273.0
20068.0 429.0 0 565.4956249183754 273.0
20089.0 423.0 0 535.7376070449076 274.0
20111.0 384.0 0 505.9795891714398 274.0
20132.0 408.0 0 476.221571297972 274.0
20153.0 391.0 0 446.4635534245042 274.0
20174.0 388.0 0 416.7055355510364 275.0
20196.0 390.0 0 386.9475176775686 275.0
20217.0 393.0 0 357.1894998041008 275.0
20238.0 394.0 0 327.431481930633 276.0
20259.0 426.0 0 297.67346405716523 276.0
20281.0 397.0 0 267.91544618369744 276.0
20302.0 353.0 0 238.15742831022965 276.0
20323.0 338.0 0 208.39941043676185 277.0
20344.0 405.0 500 178.64139256329406 277.0
20366.0 304.0 0 148.8833746898263 277.0
20387.0 304.0 0 253.17196497963388 278.0
20428.0 274.0 0 357.46055526944144 278.0
20450.0 363.0 500 461.7491455592491 278.0
20470.0 502.0 0 566.0377358490566 278.0
20492.0 499.0 0 603.0997304582211 278.0
20513.0 273.0 0 640.1617250673855 278.0
20534.0 445.0 500 677.2237196765499 278.0
20555.0 470.0 0 714.2857142857143 278.0
20577.0 389.0 0 788.6904761904763 278.0
20598.0 461.0 500 863.0952380952381 278.0
20619.0 503.0 0 937.5 278.0
20640.0 344.0 0 937.5 278.0
20662.0 418.0 500 937.5 278.0
20683.0 437.0 0 937.5 278.0
20704.0 410.0 0 861.4864864864865 278.0
20725.0 410.0 0 785.472972972973 278.0
20747.0 347.0 0 709.4594594594595 278.0
20768.0 358.0 0 633.445945945946 278.0
20789.0 336.0 0 557.4324324324325 278.0
20810.0 411.0 500 481.41891891891896 278.0
20832.0 441.0 0 405.4054054054054 278.0
20852.0 434.0 0 405.4054054054054 278.0
20874.0 434.0 0 405.4054054054054 278.0
20915.0 304.0 0 405.4054054054054 278.0
20936.0 268.0 0 405.4054054054054 278.0
20958.0 551.0 500 405.4054054054054 279.0
20979.0 435.0 0 405.4054054054054 279.0
21000.0 331.0 0 398.8473767885533 280.0
21021.0 347.0 0 392.28934817170114 280.0
21043.0 338.0 0 385.731319554849 280.0
21064.0 330.0 0 379.17329093799685 281.0
21085.0 331.0 0 372.61526232114466 281.0
21106.0 204.0 0 366.0572337042925 281.0
21128.0 304.0 500 359.4992050874404 282.0
21149.0 318.0 0 352.94117647058823 282.0
21170.0 381.0 0 396.6386554621849 282.0
21191.0 373.0 0 440.33613445378154 283.0
21213.0 362.0 0 484.03361344537814 283.0
21233.0 405.0 500 527.7310924369748 283.0
21255.0 411.0 0 571.4285714285714 284.0
21276.0 325.0 0 539.3830488170111 284.0
21298.0 317.0 0 507.3375262054508 284.0
21318.0 314.0 0 475.2920035938904 285.0
21340.0 313.0 0 443.24648098233007 285.0
21361.0 334.0 0 411.2009583707697 285.0
21383.0 334.0 0 379.15543575920935 286.0
21424.0 202.0 0 347.10991314764897 286.0
21445.0 304.0 500 315.0643905360887 286.0
21466.0 262.0 0 283.0188679245283 286.0
21487.0 283.0 0 283.0188679245283 286.0
21509.0 509.0 0 283.0188679245283 286.0
21530.0 422.0 0 283.0188679245283 286.0
21551.0 285.0 0 283.0188679245283 287.0
21572.0 294.0 0 283.0188679245283 287.0
21594.0 321.0 0 283.0188679245283 287.0
21615.0 343.0 0 283.0188679245283 287.0
21636.0 323.0 0 283.0188679245283 287.0
21657.0 380.0 500 283.0188679245283 287.0
21679.0 374.0 0 283.0188679245283 287.0
21700.0 507.0 500 839.1838525669153 287.0
21721.0 312.0 0 1395.3488372093022 288.0
21742.0 382.0 500 1411.9601328903655 288.0
21764.0 354.0 0 1428.5714285714287 288.0
21784.0 327.0 0 1373.7735169682242 288.0
21806.0 298.0 0 1318.9756053650194 288.0
21827.0 317.0 0 1264.177693761815 288.0
21849.0 383.0 0 1209.3797821586102 288.0
21869.0 289.0 0 1154.5818705554057 288.0
21891.0 289.0 0 1099.783958952201 288.0
21931.0 282.0 0 1044.9860473489964 288.0
21953.0 287.0 0 990.1881357457918 288.0
21974.0 264.0 0 935.3902241425872 288.0
21996.0 277.0 0 880.5923125393825 288.0
22016.0 296.0 0 825.7944009361779 288.0
22038.0 297.0 0 770.9964893329733 288.0
22059.0 452.0 0 716.1985777297688 287.0
22081.0 476.0 0 661.400666126564 287.0
22101.0 276.0 0 606.6027545233594 287.0
22123.0 279.0 0 551.8048429201549 287.0
22144.0 391.0 0 497.00693131695016 287.0
22166.0 224.0 0 442.20901971374565 287.0
22186.0 263.0 0 387.41110811054114 287.0
22208.0 398.0 0 332.6131965073364 286.0
22229.0 298.0 0 277.81528490413166 286.0
22251.0 282.0 0 223.01737330092715 286.0
22271.0 480.0 500 168.2194616977224 286.0
22293.0 247.0 0 113.42155009451795 286.0
22314.0 348.0 500 754.3851936519102 286.0
22335.0 432.0 0 1395.3488372093022 286.0
22356.0 220.0 0 1211.517165005537 286.0
22378.0 220.0 0 1027.6854928017717 286.0
22419.0 127.0 0 843.8538205980066 286.0
22440.0 216.0 500 660.0221483942413 286.0
22462.0 297.0 0 476.1904761904762 287.0
22482.0 287.0 0 533.6134453781513 287.0
22504.0 232.0 0 591.0364145658264 287.0
22525.0 317.0 500 648.4593837535015 287.0
22547.0 197.0 0 705.8823529411765 288.0
22567.0 174.0 0 662.5683830579212 288.0
22589.0 200.0 0 619.2544131746658 288.0
22610.0 470.0 0 575.9404432914105 288.0
22632.0 214.0 0 532.6264734081552 289.0
22652.0 172.0 0 489.3125035248999 289.0
22674.0 219.0 500 445.9985336416446 289.0
22695.0 227.0 0 402.6845637583893 289.0
22717.0 186.0 0 585.9166932992437 290.0
22737.0 237.0 500 769.148822840098 290.0
22759.0 245.0 0 952.3809523809524 290.0
22780.0 260.0 0 878.1564231801199 290.0
22801.0 332.0 0 803.9318939792873 291.0
22822.0 285.0 0 729.7073647784548 291.0
22844.0 318.0 0 655.4828355776224 291.0
22865.0 323.0 0 581.2583063767897 291.0
22886.0 323.0 0 507.0337771759573 291.0
22928.0 187.0 0 432.8092479751248 291.0
22948.0 327.0 500 358.58471877429224 291.0
22970.0 319.0 0 284.3601895734597 291.0
22991.0 319.0 0 389.7407304153889 291.0
23013.0 303.0 0 495.1212712573181 291.0
23033.0 353.0 500 600.5018120992472 291.0
23055.0 318.0 0 705.8823529411765 291.0
23076.0 323.0 0 662.1732026143791 291.0
23098.0 309.0 0 618.4640522875817 291.0
23118.0 310.0 0 574.7549019607843 291.0
23140.0 316.0 0 531.0457516339869 291.0
23161.0 478.0 0 487.33660130718954 291.0
23183.0 414.0 0 443.62745098039215 291.0
23203.0 318.0 0 399.91830065359477 291.0
23225.0 362.0 500 356.2091503267974 291.0
23246.0 386.0 0 312.5 291.0
23268.0 352.0 0 525.7936507936508 291.0
23288.0 425.0 500 739.0873015873016 291.0
23310.0 399.0 0 952.3809523809524 291.0
23331.0 416.0 0 913.1606863059959 291.0
23353.0 469.0 0 873.9404202310395 291.0
23373.0 479.0 0 834.720154156083 291.0
23395.0 479.0 0 795.4998880811266 291.0
23436.0 434.0 0 756.2796220061701 291.0
23457.0 406.0 0 717.0593559312138 292.0
23479.0 423.0 0 677.8390898562573 292.0
23499.0 434.0 0 638.6188237813008 292.0
23521.0 392.0 0 599.3985577063444 293.0
23542.0 416.0 0 560.178291631388 293.0
23564.0 514.0 0 520.9580255564315 293.0
23584.0 395.0 0 481.73775948147505 293.0
23606.0 401.0 0 442.51749340651855 294.0
23627.0 433.0 0 403.2972273315621 294.0
23649.0 378.0 0 364.0769612566056 294.0
23669.0 385.0 0 324.85669518164923 295.0
23691.0 494.0 0 285.63642910669273 295.0
23712.0 552.0 0 246.41616303173635 295.0
23734.0 369.0 0 207.19589695677985 296.0
23754.0 423.0 500 167.97563088182346 296.0
23776.0 390.0 0 128.75536480686696 296.0
23797.0 399.0 0 215.15382455577395 296.0
23819.0 459.0 0 301.55228430468094 297.0
23839.0 404.0 0 387.95074405358787 297.0
23861.0 515.0 500 474.3492038024949 297.0
23882.0 515.0 0 560.7476635514018 297.0
23923.0 506.0 0 534.2138624369823 297.0
23945.0 450.0 0 507.68006132256255 297.0
23966.0 446.0 0 481.1462602081429 297.0
23987.0 381.0 0 454.61245909372326 297.0
24008.0 418.0 0 428.0786579793036 296.0
24030.0 427.0 0 401.54485686488397 296.0
24050.0 457.0 0 375.0110557504643 296.0
24072.0 404.0 0 348.4772546360447 296.0
24093.0 424.0 0 321.943453521625 296.0
24115.0 474.0 0 295.4096524072054 296.0
24135.0 441.0 0 268.87585129278574 295.0
24157.0 412.0 0 242.3420501783661 295.0
24178.0 465.0 500 215.80824906394645 295.0
24200.0 381.0 0 189.2744479495268 295.0
24220.0 468.0 500 808.9229382604777 295.0
24242.0 493.0 0 1428.5714285714287 295.0
24263.0 457.0 0 1247.8991596638657 294.0
24285.0 312.0 0 1067.2268907563025 294.0
24305.0 452.0 500 886.5546218487395 294.0
24327.0 406.0 0 705.8823529411765 294.0
24348.0 469.0 500 1050.6155950752393 294.0
24370.0 388.0 0 1395.3488372093022 294.0
24390.0 388.0 0 1189.3687707641195 293.0
24432.0 386.0 0 983.3887043189368 293.0
24453.0 472.0 500 777.4086378737542 292.0
24474.0 440.0 0 571.4285714285714 292.0
24496.0 403.0 0 605.0420168067227 292.0
24517.0 376.0 0 638.655462184874 291.0
24538.0 475.0 500 672.2689075630252 291.0
24559.0 350.0 0 705.8823529411765 291.0
24581.0 431.0 500 1050.6155950752393 290.0
24601.0 485.0 0 1395.3488372093022 290.0
24623.0 352.0 0 1247.6928755998524 290.0
24644.0 414.0 500 1100.0369139904024 289.0
24666.0 428.0 0 952.3809523809524 289.0
24686.0 359.0 0 872.3909511311086 289.0
24708.0 383.0 0 792.4009498812649 288.0
24729.0 380.0 0 712.4109486314211 288.0
24751.0 321.0 0 632.4209473815773 287.0
24771.0 440.0 500 552.4309461317335 287.0
24793.0 523.0 0 472.4409448818898 287.0
24814.0 395.0 0 530.8012968967114 286.0
24836.0 256.0 0 589.1616489115331 286.0
24856.0 457.0 500 647.5220009263548 286.0
24878.0 457.0 0 705.8823529411765 285.0
24918.0 377.0 0 672.2689075630252 285.0
24940.0 345.0 0 638.655462184874 285.0
24961.0 385.0 500 605.0420168067227 285.0
24983.0 491.0 0 571.4285714285714 285.0
25003.0 413.0 0 547.3222846185454 285.0
25025.0 372.0 0 523.2159978085194 285.0
25046.0 388.0 0 499.10971099849337 284.0
25068.0 485.0 0 475.00342418846736 284.0
25088.0 297.0 0 450.89713737844136 284.0
25110.0 383.0 500 426.7908505684153 284.0
25131.0 395.0 0 402.6845637583893 284.0
25152.0 352.0 0 478.48401105408607 284.0
25173.0 341.0 0 554.2834583497829 284.0
25195.0 395.0 500 630.0829056454797 284.0
25216.0 419.0 0 705.8823529411765 283.0
25237.0 289.0 0 662.9570747217806 283.0
25258.0 327.0 0 620.0317965023847 283.0
25280.0 397.0 0 577.1065182829889 283.0
25301.0 434.0 0 534.181240063593 283.0
25322.0 328.0 0 491.25596184419715 283.0
25343.0 435.0 500 448.3306836248013 283.0
25365.0 341.0 0 405.4054054054054 283.0
25386.0 341.0 0 445.5634880163182 282.0
25427.0 182.0 0 485.721570627231 282.0
25449.0 283.0 500 525.8796532381439 282.0
25469.0 266.0 0 566.0377358490566 282.0
25491.0 329.0 500 997.3045822102426 282.0
25512.0 315.0 0 1428.5714285714287 281.0
25534.0 377.0 500 1411.9601328903655 281.0
25554.0 307.0 0 1395.3488372093022 281.0
25576.0 320.0 0 1275.3977968176255 281.0
25597.0 298.0 0 1155.4467564259485 281.0
25619.0 281.0 0 1035.4957160342717 281.0
25639.0 272.0 0 915.5446756425949 280.0
25661.0 286.0 0 795.5936352509179 280.0
25682.0 261.0 0 675.6425948592412 280.0
25703.0 252.0 0 555.6915544675643 280.0
25724.0 311.0 500 435.7405140758875 280.0
25746.0 284.0 0 315.7894736842105 280.0
25767.0 264.0 0 328.20305798052175 279.0
25788.0 303.0 0 340.61664227683303 279.0
25809.0 180.0 0 353.03022657314426 279.0
25831.0 203.0 0 365.44381086945555 279.0
25852.0 182.0 0 377.8573951657668 279.0
25873.0 375.0 500 390.270979462078 279.0
25894.0 375.0 0 402.6845637583893 279.0
25935.0 375.0 0 390.4514948139109 279.0
25957.0 140.0 0 378.2184258694326 279.0
25978.0 179.0 0 365.98535692495426 280.0
26000.0 178.0 0 353.7522879804759 280.0
26020.0 194.0 0 341.5192190359976 280.0
26042.0 215.0 0 329.28615009151923 281.0
26063.0 244.0 0 317.05308114704087 281.0
26085.0 273.0 0 304.82001220256257 281.0
26105.0 254.0 0 292.5869432580842 281.0
26127.0 230.0 0 280.35387431360584 282.0
26148.0 223.0 0 268.12080536912754 282.0
26170.0 205.0 0 255.88773642464918 282.0
26190.0 208.0 0 243.65466748017084 282.0
26212.0 234.0 0 231.42159853569248 283.0
26233.0 240.0 0 219.18852959121415 283.0
26254.0 256.0 0 206.95546064673582 283.0
26275.0 262.0 0 194.72239170225745 283.0
26297.0 247.0 0 182.48932275777912 284.0
26318.0 227.0 0 170.2562538133008 284.0
26339.0 223.0 0 158.02318486882243 284.0
26360.0 227.0 0 145.7901159243441 284.0
26382.0 227.0 0 133.5570469798658 284.0
26423.0 304.0 500 121.32397803538737 284.0
26444.0 287.0 0 109.0909090909091 284.0
26466.0 271.0 0 200.4802744425386 284.0
26486.0 287.0 0 291.8696397941681 283.0
26508.0 218.0 0 383.2590051457976 283.0
26529.0 320.0 500 474.6483704974271 283.0
26551.0 289.0 0 566.0377358490566 283.0
26571.0 276.0 0 689.8584905660377 283.0
26593.0 332.0 500 813.6792452830189 282.0
26614.0 449.0 0 937.5 282.0
26636.0 337.0 0 859.375 282.0
26656.0 364.0 0 781.25 282.0
26678.0 407.0 0 703.125 281.0
26699.0 361.0 0 625.0 281.0
26721.0 416.0 500 546.875 281.0
26741.0 415.0 0 468.75 281.0
26763.0 358.0 0 448.26224328594 281.0
26784.0 390.0 0 427.77448657187995 280.0
26805.0 396.0 0 407.2867298578199 280.0
26826.0 447.0 0 386.7989731437599 280.0
26848.0 428.0 0 366.3112164296998 280.0
26869.0 342.0 0 345.82345971563984 280.0
26890.0 342.0 0 325.33570300157976 280.0
26932.0 387.0 500 304.8479462875198 280.0
26952.0 562.0 0 284.3601895734597 280.0
26974.0 418.0 0 315.70698212486474 280.0
26995.0 426.0 0 347.0537746762697 280.0
27017.0 388.0 0 378.40056722767474 280.0
27037.0 387.0 0 409.7473597790797 280.0
27059.0 453.0 500 441.0941523304848 280.0
27080.0 438.0 0 472.4409448818898 280.0
27102.0 555.0 500 933.8948910455961 280.0
27122.0 464.0 0 1395.3488372093022 280.0
27144.0 548.0 500 1411.9601328903655 281.0
27165.0 560.0 0 1428.5714285714287 281.0
27187.0 555.0 0 1247.8991596638657 281.0
27207.0 436.0 0 1067.2268907563025 281.0
27229.0 562.0 500 886.5546218487395 281.0
27250.0 458.0 0 705.8823529411765 281.0
27272.0 460.0 0 676.1785151001811 281.0
27292.0 478.0 0 646.4746772591857 281.0
27314.0 423.0 0 616.7708394181903 281.0
27335.0 460.0 0 587.0670015771949 281.0
27356.0 468.0 0 557.3631637361996 281.0
27377.0 468.0 0 527.6593258952041 282.0
27418.0 434.0 0 497.9554880542088 282.0
27440.0 419.0 0 468.25165021321334 283.0
27461.0 440.0 0 438.547812372218 283.0
27483.0 561.0 0 408.8439745312226 283.0
27503.0 414.0 0 379.14013669022717 284.0
27525.0 435.0 0 349.43629884923183 284.0
27546.0 380.0 0 319.73246100823644 284.0
27568.0 386.0 0 290.02862316724105 285.0
27588.0 477.0 0 260.32478532624566 285.0
27610.0 380.0 0 230.62094748525027 285.0
27631.0 359.0 0 200.91710964425488 286.0
27653.0 432.0 500 171.21327180325954 286.0
27673.0 396.0 0 141.50943396226415 286.0
27695.0 424.0 0 167.93840177580466 287.0
27716.0 456.0 0 194.36736958934517 287.0
27738.0 373.0 0 220.79633740288568 287.0
27758.0 389.0 0 247.2253052164262 288.0
27780.0 478.0 0 273.6542730299667 288.0
27801.0 363.0 0 300.0832408435072 288.0
27823.0 448.0 500 326.5122086570477 289.0
27843.0 480.0 0 352.94117647058823 289.0
27865.0 470.0 0 341.7775869471876 289.0
27886.0 470.0 0 330.61399742378705 289.0
27927.0 477.0 0 319.45040790038644 289.0
27948.0 466.0 0 308.2868183769858 289.0
27969.0 485.0 0 297.1232288535852 289.0
27990.0 547.0 0 285.95963933018464 289.0
28012.0 561.0 0 274.796049806784 289.0
28033.0 477.0 0 263.63246028338347 289.0
28054.0 459.0 0 252.46887075998282 289.0
28075.0 452.0 0 241.30528123658223 289.0
28097.0 507.0 500 230.14169171318161 289.0
28118.0 498.0 0 218.97810218978103 289.0
28139.0 491.0 0 215.2971398139156 288.0
28160.0 512.0 0 211.6161774380502 288.0
28182.0 536.0 0 207.93521506218477 288.0
28203.0 551.0 0 204.25425268631935 288.0
28224.0 559.0 0 200.57329031045393 288.0
28245.0 536.0 0 196.89232793458854 288.0
28267.0 532.0 0 193.21136555872312 288.0
28288.0 491.0 0 189.5304031828577 288.0
28309.0 512.0 0 185.84944080699228 288.0
28330.0 524.0 0 182.16847843112686 288.0
28352.0 517.0 0 178.48751605526144 288.0
28372.0 541.0 0 174.80655367939602 288.0
28394.0 541.0 0 171.1255913035306 288.0
28436.0 518.0 0 167.44462892766518 288.0
28456.0 532.0 0 163.76366655179976 288.0
28478.0 488.0 0 160.08270417593434 288.0
28499.0 505.0 0 156.40174180006892 288.0
28520.0 561.0 0 152.7207794242035 288.0
28541.0 559.0 0 149.03981704833808 288.0
28563.0 486.0 0 145.35885467247266 288.0
28584.0 491.0 0 141.67789229660724 288.0
28605.0 499.0 0 137.99692992074182 288.0
28626.0 507.0 0 134.3159675448764 289.0
28648.0 511.0 0 130.635005169011 289.0
28669.0 516.0 0 126.95404279314559 289.0
28690.0 522.0 0 123.27308041728016 289.0
28711.0 535.0 0 119.59211804141474 289.0
28733.0 536.0 0 115.91115566554933 289.0
28754.0 528.0 0 112.23019328968391 289.0
28775.0 493.0 0 108.54923091381849 289.0
28796.0 486.0 0 104.86826853795307 289.0
28818.0 484.0 0 101.18730616208767 289.0
28839.0 475.0 0 97.50634378622225 289.0
28860.0 467.0 0 93.82538141035683 289.0
28881.0 467.0 0 90.14441903449139 289.0
28922.0 466.0 0 86.463456658626 289.0
28944.0 434.0 0 82.78249428276058 289.0
28965.0 417.0 0 79.10153190689516 289.0
28987.0 421.0 0 75.42056953102974 289.0
29007.0 396.0 0 71.73960715516432 289.0
29029.0 472.0 500 68.0586447792989 289.0
29050.0 490.0 0 64.37768240343348 288.0
29071.0 375.0 0 92.12862054243534 288.0
29092.0 399.0 0 119.8795586814372 288.0
29114.0 382.0 0 147.63049682043908 288.0
29135.0 386.0 0 175.38143495944092 288.0
29156.0 371.0 0 203.13237309844283 288.0
29177.0 378.0 0 230.88331123744467 288.0
29199.0 347.0 0 258.6342493764465 288.0
29220.0 392.0 500 286.38518751544837 287.0
29241.0 380.0 0 314.13612565445027 287.0
29262.0 386.0 0 308.6965390630312 287.0
29284.0 329.0 0 303.2569524716122 287.0
29305.0 305.0 0 297.8173658801931 287.0
29326.0 276.0 0 292.37777928877404 287.0
29347.0 270.0 0 286.938192697355 287.0
29369.0 241.0 0 281.49860610593595 287.0
29390.0 241.0 0 276.0590195145169 286.0
29431.0 71.0 0 270.6194329230978 286.0
29451.0 150.0 500 265.1798463316788 286.0
29472.0 136.0 0 259.7402597402597 286.0
29494.0 117.0 0 254.02930798699754 286.0
29515.0 119.0 0 248.31835623373533 285.0
29536.0 121.0 0 242.60740448047315 285.0
29557.0 334.0 0 236.89645272721097 285.0
29579.0 164.0 0 231.18550097394876 285.0
29600.0 101.0 0 225.47454922068658 285.0
29621.0 111.0 0 219.7635974674244 285.0
29642.0 99.0 0 214.05264571416222 284.0
29663.0 101.0 0 208.34169396090002 284.0
29684.0 112.0 0 202.63074220763784 284.0
29705.0 98.0 0 196.91979045437566 284.0
29725.0 133.0 0 191.20883870111345 284.0
29747.0 156.0 0 185.49788694785127 284.0
29767.0 150.0 0 179.7869351945891 283.0
29789.0 128.0 0 174.0759834413269 283.0
29810.0 92.0 0 168.36503168806473 283.0
29831.0 82.0 0 162.65407993480255 283.0
29850.0 75.0 0 156.94312818154032 283.0
29871.0 72.0 0 151.23217642827814 283.0
29891.0 72.0 0 145.52122467501596 283.0
29931.0 72.0 0 139.81027292175378 283.0
29951.0 90.0 0 134.0993211684916 283.0
29971.0 82.0 0 128.38836941522942 283.0
29991.0 99.0 0 122.67741766196721 283.0
30012.0 78.0 0 116.96646590870503 283.0
30031.0 53.0 0 111.25551415544282 283.0
30052.0 96.0 500 105.54456240218065 283.0
30072.0 303.0 0 99.83361064891847 283.0
30093.0 125.0 0 163.1946755407654 283.0
30114.0 109.0 0 226.5557404326123 283.0
30136.0 103.0 0 289.91680532445923 283.0
30156.0 95.0 0 353.27787021630616 283.0
30177.0 135.0 500 416.6389351081531 283.0
30198.0 163.0 0 480.0 283.0
30220.0 163.0 0 637.4603174603175 283.0
30240.0 229.0 500 794.9206349206349 283.0
30262.0 255.0 0 952.3809523809524 283.0
30283.0 255.0 0 878.0073874413497 283.0
30305.0 261.0 0 803.6338225017471 283.0
30325.0 220.0 0 729.2602575621444 283.0
30347.0 224.0 0 654.8866926225417 283.0
30368.0 211.0 0 580.5131276829391 283.0
30389.0 211.0 0 506.13956274333634 282.0
30431.0 127.0 0 431.7659978037336 282.0
30452.0 290.0 500 357.392432864131 282.0
30473.0 274.0 0 283.0188679245283 282.0
30494.0 287.0 0 314.58921408408855 282.0
30516.0 286.0 0 346.1595602436488 281.0
30536.0 290.0 0 377.72990640320904 281.0
30558.0 275.0 0 409.3002525627693 281.0
30579.0 502.0 500 440.87059872232953 281.0
30601.0 355.0 0 472.4409448818898 281.0
30621.0 320.0 0 453.3300524934383 281.0
30643.0 318.0 0 434.2191601049869 280.0
30664.0 331.0 0 415.10826771653547 280.0
30686.0 348.0 0 395.997375328084 280.0
30706.0 373.0 0 376.8864829396325 280.0
30728.0 383.0 0 357.7755905511811 280.0
30749.0 408.0 0 338.6646981627297 280.0
30771.0 433.0 0 319.5538057742782 279.0
30791.0 429.0 0 300.4429133858267 279.0
30813.0 436.0 0 281.3320209973753 279.0
30834.0 436.0 0 262.2211286089239 279.0
30856.0 422.0 0 243.11023622047242 279.0
30876.0 422.0 0 223.99934383202097 278.0
30918.0 390.0 0 204.88845144356952 277.0
30939.0 448.0 500 185.7775590551181 277.0
30960.0 461.0 0 166.66666666666666 276.0
30982.0 439.0 0 200.77220077220076 276.0
31003.0 447.0 0 234.87773487773487 275.0
31024.0 447.0 0 268.983268983269 274.0
31045.0 426.0 0 303.08880308880305 274.0
31067.0 425.0 0 337.1943371943372 273.0
31087.0 557.0 500 371.29987129987126 273.0
31109.0 472.0 0 405.4054054054054 272.0
31130.0 445.0 0 404.6332046332046 271.0
31152.0 445.0 0 403.8610038610039 271.0
31172.0 453.0 0 403.0888030888031 270.0
31194.0 424.0 0 402.3166023166023 270.0
31215.0 413.0 0 401.5444015444015 269.0
31237.0 456.0 500 400.7722007722008 268.0
31257.0 444.0 0 400.0 268.0
31279.0 475.0 0 387.15113217482883 267.0
31300.0 469.0 0 374.3022643496577 267.0
31322.0 446.0 0 361.45339652448655 266.0
31342.0 396.0 0 348.60452869931544 265.0
31364.0 408.0 0 335.75566087414427 265.0
31385.0 408.0 0 322.90679304897316 265.0
31426.0 266.0 0 310.057925223802 266.0
31448.0 376.0 500 297.2090573986309 267.0
31469.0 409.0 0 284.3601895734597 268.0
31489.0 398.0 0 301.65236326373764 268.0
31511.0 320.0 0 318.94453695401563 269.0
31532.0 312.0 0 336.23671064429357 270.0
31554.0 292.0 0 353.52888433457156 270.0
31574.0 272.0 0 370.8210580248495 271.0
31596.0 449.0 500 388.1132317151274 272.0
31617.0 367.0 0 405.4054054054054 272.0
31638.0 296.0 0 390.51325001882105 273.0
31659.0 293.0 0 375.6210946322367 274.0
31681.0 292.0 0 360.7289392456523 274.0
31702.0 296.0 0 345.83678385906796 275.0
31723.0 285.0 0 330.9446284724836 276.0
31744.0 308.0 0 316.0524730858993 276.0
31766.0 325.0 0 301.16031769931493 277.0
31787.0 313.0 0 286.26816231273057 278.0
31808.0 352.0 0 271.3760069261462 278.0
31829.0 337.0 0 256.48385153956184 279.0
31851.0 338.0 0 241.5916961529775 280.0
31872.0 306.0 0 226.69954076639314 280.0
31893.0 306.0 0 211.80738537980878 281.0
31935.0 182.0 0 196.91522999322444 281.0
31955.0 299.0 500 182.02307460664008 281.0
31977.0 308.0 0 167.13091922005572 281.0
31998.0 359.0 0 172.81118575563931 281.0
32020.0 328.0 0 178.4914522912229 281.0
32040.0 241.0 0 184.17171882680648 281.0
32062.0 237.0 0 189.85198536239008 281.0
32083.0 255.0 0 195.53225189797368 281.0
32104.0 411.0 0 201.21251843355725 281.0
32125.0 262.0 0 206.89278496914085 281.0
32147.0 258.0 0 212.57305150472445 281.0
32168.0 239.0 0 218.25331804030805 281.0
32189.0 238.0 0 223.93358457589164 281.0
32210.0 500.0 500 229.6138511114752 281.0
32232.0 165.0 0 235.2941176470588 281.0
32253.0 237.0 500 815.3214774281805 281.0
32274.0 287.0 0 1395.3488372093022 281.0
32295.0 308.0 0 1229.486616937253 281.0
32317.0 338.0 0 1063.624396665204 281.0
32337.0 334.0 0 897.762176393155 281.0
32359.0 400.0 500 731.8999561211057 281.0
32380.0 400.0 0 566.0377358490566 280.0
32421.0 180.0 0 615.4537286612758 280.0
32443.0 277.0 500 664.8697214734951 280.0
32464.0 278.0 0 714.2857142857143 280.0
32485.0 394.0 0 676.1238761238761 280.0
32506.0 341.0 0 637.962037962038 279.0
32528.0 293.0 0 599.8001998001998 279.0
32549.0 289.0 0 561.6383616383616 279.0
32570.0 317.0 0 523.4765234765235 279.0
32591.0 321.0 0 485.31468531468533 279.0
32613.0 511.0 0 447.1528471528472 279.0
32634.0 376.0 0 408.991008991009 278.0
32655.0 326.0 0 370.82917082917083 278.0
32676.0 357.0 0 332.6673326673327 278.0
32698.0 279.0 0 294.50549450549454 278.0
32718.0 323.0 500 256.34365634365633 278.0
32740.0 377.0 0 218.1818181818182 278.0
32761.0 312.0 0 453.1468531468531 277.0
32783.0 370.0 500 688.111888111888 277.0
32803.0 372.0 0 923.0769230769231 277.0
32825.0 411.0 0 868.7782805429864 277.0
32846.0 370.0 0 814.4796380090497 277.0
32868.0 420.0 500 760.1809954751131 277.0
32888.0 420.0 0 705.8823529411765 276.0
32930.0 285.0 0 711.5520907158044 276.0
32951.0 361.0 500 717.2218284904322 275.0
32972.0 352.0 0 722.8915662650602 275.0
32994.0 389.0 0 695.6330080448731 274.0
33015.0 410.0 0 668.374449824686 274.0
33036.0 354.0 0 641.115891604499 274.0
33057.0 339.0 0 613.8573333843119 273.0
33079.0 335.0 0 586.5987751641248 273.0
33100.0 326.0 0 559.3402169439378 272.0
33121.0 332.0 0 532.0816587237507 272.0
33142.0 489.0 0 504.8231005035636 272.0
33164.0 334.0 0 477.5645422833765 271.0
33185.0 359.0 0 450.30598406318944 271.0
33206.0 349.0 0 423.0474258430024 271.0
33227.0 375.0 0 395.7888676228153 270.0
33249.0 359.0 0 368.5303094026282 270.0
33270.0 392.0 0 341.27175118244116 269.0
33291.0 360.0 0 314.0131929622541 269.0
33312.0 398.0 0 286.75463474206697 269.0
33334.0 414.0 0 259.49607652187996 268.0
33354.0 442.0 0 232.23751830169283 268.0
33376.0 442.0 0 204.97896008150576 268.0
33418.0 308.0 0 177.7204018613187 268.0
33438.0 352.0 500 150.46184364113162 268.0
33460.0 346.0 0 123.20328542094455 268.0
33481.0 347.0 0 139.05197096335715 268.0
33502.0 388.0 0 154.90065650576972 268.0
33523.0 377.0 0 170.7493420481823 268.0
33545.0 374.0 0 186.59802759059488 268.0
33566.0 342.0 0 202.44671313300748 268.0
33587.0 348.0 0 218.29539867542007 268.0
33608.0 344.0 0 234.14408421783264 268.0
33630.0 316.0 0 249.99276976024524 268.0
33651.0 495.0 500 265.84145530265783 268.0
33672.0 382.0 0 281.6901408450704 268.0
33693.0 344.0 0 276.68812952382956 268.0
33715.0 333.0 0 271.68611820258866 268.0
33736.0 360.0 0 266.6841068813478 268.0
33757.0 332.0 0 261.6820955601069 268.0
33778.0 369.0 0 256.6800842388661 268.0
33800.0 361.0 0 251.6780729176252 268.0
33821.0 397.0 0 246.67606159638433 268.0
33842.0 392.0 0 241.6740502751435 268.0
33863.0 403.0 0 236.6720389539026 268.0
33885.0 403.0 0 231.67002763266174 269.0
33926.0 310.0 0 226.66801631142087 269.0
33947.0 339.0 0 221.66600499018 270.0
33969.0 355.0 0 216.66399366893913 270.0
33989.0 374.0 0 211.66198234769826 270.0
34011.0 360.0 0 206.6599710264574 271.0
34032.0 366.0 0 201.65795970521654 271.0
34053.0 395.0 0 196.65594838397567 271.0
34074.0 360.0 0 191.6539370627348 272.0
34096.0 364.0 0 186.65192574149393 272.0
34117.0 328.0 0 181.64991442025308 272.0
34138.0 339.0 0 176.64790309901218 273.0
34159.0 342.0 0 171.64589177777134 273.0
34181.0 531.0 0 166.6438804565305 273.0
34202.0 328.0 0 161.6418691352896 274.0
34223.0 338.0 0 156.63985781404872 274.0
34244.0 371.0 0 151.63784649280785 274.0
34266.0 337.0 0 146.635835171567 275.0
34287.0 351.0 0 141.63382385032614 275.0
34308.0 369.0 0 136.6318125290853 275.0
34329.0 375.0 0 131.62980120784442 276.0
34351.0 382.0 0 126.62778988660352 276.0
34372.0 407.0 0 121.62577856536268 276.0
34393.0 407.0 0 116.62376724412181 277.0
34435.0 346.0 0 111.62175592288094 277.0
34455.0 350.0 0 106.6197446016401 277.0
34476.0 378.0 0 101.6177332803992 277.0
34498.0 380.0 0 96.61572195915832 277.0
34520.0 363.0 0 91.61371063791748 277.0
34540.0 362.0 0 86.6116993166766 277.0
34561.0 374.0 0 81.60968799543576 277.0
34583.0 381.0 0 76.60767667419489 277.0
34603.0 368.0 0 71.60566535295399 277.0
34625.0 414.0 500 66.60365403171315 278.0
34646.0 325.0 0 61.60164271047228 278.0
34668.0 344.0 0 222.67182026814834 278.0
34688.0 335.0 0 383.7419978258244 278.0
34710.0 537.0 500 544.8121753835005 278.0
34731.0 371.0 0 705.8823529411765 278.0
34753.0 340.0 0 686.9456652738386 278.0
34773.0 326.0 0 668.0089776065008 278.0
34795.0 329.0 0 649.0722899391629 278.0
34816.0 292.0 0 630.1356022718252 278.0
34838.0 302.0 0 611.1989146044873 278.0
34858.0 332.0 0 592.2622269371495 278.0
34880.0 332.0 0 573.3255392698117 279.0
34921.0 341.0 0 554.3888516024739 279.0
34942.0 388.0 0 535.452163935136 279.0
34964.0 357.0 0 516.5154762677982 279.0
34985.0 307.0 0 497.5787886004604 280.0
35006.0 317.0 0 478.6421009331226 280.0
35027.0 302.0 0 459.7054132657848 280.0
35049.0 290.0 0 440.7687255984469 280.0
35070.0 285.0 0 421.83203793110914 280.0
35091.0 262.0 0 402.89535026377126 281.0
35112.0 268.0 0 383.9586625964335 281.0
35134.0 321.0 0 365.0219749290957 281.0
35154.0 276.0 0 346.0852872617578 281.0
35176.0 248.0 0 327.14859959442 282.0
35197.0 270.0 0 308.21191192708216 282.0
35219.0 261.0 0 289.2752242597444 282.0
35239.0 283.0 0 270.3385365924065 282.0
35261.0 402.0 0 251.4018489250687 282.0
35282.0 278.0 0 232.46516125773087 283.0
35304.0 261.0 0 213.5284735903931 283.0
35324.0 273.0 0 194.59178592305523 283.0
35346.0 257.0 0 175.65509825571735 283.0
35367.0 210.0 0 156.71841058837958 283.0
35389.0 210.0 0 137.78172292104182 283.0
35430.0 191.0 0 118.84503525370394 283.0
35451.0 310.0 500 99.90834758636606 283.0
35472.0 335.0 0 80.97165991902834 283.0
35493.0 390.0 0 114.96784948797333 283.0
35515.0 348.0 0 148.9640390569183 283.0
35536.0 335.0 0 182.9602286258633 283.0
35557.0 331.0 0 216.9564181948083 282.0
35578.0 360.0 0 250.9526077637533 282.0
35600.0 269.0 0 284.94879733269823 282.0
35621.0 338.0 500 318.94498690164323 282.0
35642.0 288.0 0 352.94117647058823 282.0
35663.0 403.0 500 890.7563025210084 282.0
35685.0 305.0 0 1428.5714285714287 282.0
35705.0 318.0 0 1327.7056277056279 282.0
35727.0 304.0 0 1226.8398268398269 281.0
35748.0 298.0 0 1125.974025974026 281.0
35770.0 305.0 0 1025.1082251082253 281.0
35790.0 502.0 0 924.2424242424242 281.0
35812.0 349.0 0 823.3766233766235 281.0
35833.0 356.0 0 722.5108225108225 281.0
35855.0 314.0 0 621.6450216450218 281.0
35875.0 314.0 0 520.7792207792209 281.0
35917.0 310.0 0 419.91341991341994 281.0
35938.0 383.0 500 319.04761904761926 281.0
35959.0 375.0 0 218.1818181818182 281.0
35981.0 426.0 500 806.7653276955602 281.0
36002.0 419.0 0 1395.3488372093022 281.0
36023.0 417.0 0 1323.0734154126767 281.0
36044.0 397.0 0 1250.797993616051 282.0
36066.0 385.0 0 1178.5225718194254 282.0
36087.0 397.0 0 1106.2471500227998 282.0
36108.0 403.0 0 1033.971728226174 282.0
36129.0 391.0 0 961.6963064295485 282.0
36151.0 395.0 0 889.4208846329229 282.0
36171.0 395.0 0 817.1454628362973 282.0
36193.0 395.0 0 744.8700410396717 282.0
36214.0 429.0 0 672.594619243046 283.0
36236.0 413.0 0 600.3191974464204 283.0
36256.0 390.0 0 528.0437756497947 283.0
36278.0 368.0 0 455.7683538531693 283.0
36299.0 405.0 0 383.4929320565436 283.0
36321.0 371.0 0 311.2175102599181 283.0
36341.0 560.0 500 238.9420884632923 283.0
36363.0 429.0 0 166.66666666666666 283.0
36384.0 429.0 0 266.50943396226415 283.0
36425.0 355.0 0 366.3522012578617 281.0
36447.0 397.0 500 466.19496855345915 280.0
36468.0 416.0 0 566.0377358490566 278.0
36489.0 411.0 0 546.5626271695529 277.0
36510.0 429.0 0 527.0875184900493 276.0
36532.0 432.0 0 507.6124098105456 275.0
36553.0 458.0 0 488.13730113104197 274.0
36574.0 438.0 0 468.6621924515383 273.0
36595.0 433.0 0 449.18708377203467 272.0
36617.0 392.0 0 429.711975092531 270.0
36638.0 409.0 0 410.2368664130273 269.0
36659.0 434.0 0 390.76175773352367 268.0
36680.0 412.0 0 371.28664905402 267.0
36702.0 401.0 0 351.8115403745163 266.0
36722.0 404.0 0 332.3364316950127 265.0
36744.0 420.0 0 312.861323015509 264.0
36765.0 398.0 0 293.38621433600537 262.0
36787.0 419.0 0 273.9111056565017 261.0
36807.0 418.0 0 254.43599697699807 260.0
36829.0 378.0 0 234.96088829749442 259.0
36850.0 379.0 0 215.48577961799072 258.0
36872.0 381.0 0 196.01067093848707 257.0
36892.0 381.0 0 176.53556225898342 257.0
36934.0 326.0 0 157.06045357947977 257.0
36955.0 377.0 500 137.58534489997606 257.0
36976.0 369.0 0 118.11023622047244 257.0
36998.0 374.0 0 118.34173845685754 257.0
37019.0 362.0 0 118.57324069324264 257.0
37040.0 381.0 0 118.80474292962774 257.0
37061.0 401.0 0 119.03624516601283 257.0
37083.0 417.0 0 119.26774740239793 257.0
37104.0 405.0 0 119.49924963878301 257.0
37125.0 420.0 0 119.73075187516811 258.0
37146.0 407.0 0 119.96225411155321 258.0
37168.0 387.0 0 120.1937563479383 258.0
37189.0 388.0 0 120.4252585843234 258.0
37210.0 361.0 0 120.6567608207085 258.0
37231.0 385.0 0 120.8882630570936 258.0
37253.0 376.0 0 121.1197652934787 258.0
37273.0 372.0 0 121.35126752986379 258.0
37295.0 338.0 0 121.58276976624889 258.0
37316.0 360.0 0 121.81427200263398 258.0
37338.0 384.0 0 122.04577423901907 258.0
37358.0 359.0 0 122.27727647540416 258.0
37380.0 359.0 0 122.50877871178926 259.0
37420.0 240.0 0 122.74028094817436 260.0
37442.0 329.0 500 122.97178318455946 260.0
37464.0 443.0 0 123.20328542094455 261.0
37485.0 323.0 0 144.41804544688964 261.0
37505.0 311.0 0 165.63280547283472 262.0
37527.0 314.0 0 186.84756549877977 262.0
37548.0 333.0 0 208.06232552472488 263.0
37570.0 337.0 0 229.27708555066994 264.0
37590.0 339.0 0 250.49184557661502 264.0
37612.0 326.0 0 271.7066056025601 265.0
37633.0 378.0 500 292.9213656285052 265.0
37655.0 384.0 0 314.13612565445027 266.0
37675.0 390.0 0 304.95541726752674 266.0
37697.0 370.0 0 295.77470888060316 267.0
37718.0 336.0 0 286.59400049367963 267.0
37740.0 341.0 0 277.41329210675605 268.0
37760.0 325.0 0 268.2325837198325 269.0
37782.0 344.0 0 259.05187533290893 269.0
37803.0 300.0 0 249.8711669459854 270.0
37824.0 296.0 0 240.69045855906182 270.0
37845.0 283.0 0 231.5097501721383 271.0
37867.0 304.0 0 222.3290417852147 271.0
37888.0 304.0 0 213.1483333982912 271.0
37929.0 261.0 0 203.96762501136763 271.0
37951.0 297.0 0 194.78691662444407 271.0
37971.0 267.0 0 185.60620823752052 271.0
37993.0 299.0 0 176.42549985059696 271.0
38014.0 265.0 0 167.2447914636734 271.0
38036.0 482.0 500 158.06408307674985 271.0
38056.0 308.0 0 148.8833746898263 271.0
38078.0 286.0 0 148.92462804939677 271.0
38099.0 270.0 0 148.96588140896725 271.0
38121.0 276.0 0 149.0071347685377 271.0
38141.0 289.0 0 149.04838812810817 270.0
38163.0 304.0 0 149.08964148767865 270.0
38184.0 324.0 0 149.13089484724912 270.0
38206.0 332.0 0 149.1721482068196 270.0
38226.0 375.0 0 149.21340156639008 270.0
38248.0 380.0 0 149.25465492596055 270.0
38269.0 381.0 0 149.295908285531 270.0
38291.0 347.0 0 149.33716164510147 270.0
38311.0 321.0 0 149.37841500467195 270.0
38333.0 327.0 0 149.41966836424243 270.0
38354.0 300.0 0 149.4609217238129 270.0
38375.0 300.0 0 149.50217508338335 270.0
38417.0 260.0 0 149.54342844295383 270.0
38437.0 319.0 500 149.5846818025243 270.0
38459.0 328.0 0 149.62593516209478 270.0
38480.0 348.0 0 148.24559852610722 270.0
38502.0 372.0 0 146.86526189011968 270.0
38522.0 322.0 0 145.48492525413212 270.0
38544.0 314.0 0 144.1045886181446 270.0
38565.0 299.0 0 142.72425198215703 270.0
38587.0 307.0 0 141.34391534616947 270.0
38607.0 388.0 0 139.96357871018193 270.0
38629.0 434.0 0 138.58324207419437 270.0
38650.0 324.0 0 137.20290543820684 270.0
38672.0 349.0 0 135.82256880221928 270.0
38692.0 327.0 0 134.44223216623175 270.0
38714.0 366.0 0 133.0618955302442 270.0
38735.0 351.0 0 131.68155889425663 270.0
38757.0 345.0 0 130.3012222582691 270.0
38777.0 356.0 0 128.92088562228153 270.0
38799.0 405.0 0 127.54054898629398 270.0
38820.0 403.0 0 126.16021235030644 270.0
38842.0 397.0 0 124.77987571431889 270.0
38862.0 393.0 0 123.39953907833134 270.0
38884.0 393.0 0 122.01920244234378 271.0
38925.0 316.0 0 120.63886580635625 271.0
38946.0 360.0 500 119.25852917036869 271.0
38968.0 366.0 0 117.87819253438114 272.0
38988.0 339.0 0 206.4520867377853 272.0
39010.0 357.0 0 295.02598094118946 272.0
39031.0 349.0 0 383.59987514459357 272.0
39053.0 396.0 500 472.17376934799773 273.0
39073.0 395.0 0 560.7476635514018 273.0
39095.0 358.0 0 546.0298771064831 273.0
39116.0 345.0 0 531.3120906615645 273.0
39138.0 347.0 0 516.5943042166458 274.0
39158.0 338.0 0 501.87651777172715 274.0
39180.0 456.0 500 487.15873132680844 274.0
39201.0 414.0 0 472.4409448818898 274.0
39223.0 323.0 0 460.86150995831406 275.0
39243.0 345.0 0 449.28207503473834 275.0
39265.0 342.0 0 437.70264011116257 275.0
39286.0 370.0 0 426.12320518758685 275.0
39308.0 377.0 0 414.54377026401113 276.0
39328.0 378.0 0 402.9643353404354 276.0
39350.0 393.0 0 391.3849004168597 276.0
39371.0 406.0 0 379.8054654932839 276.0
39393.0 406.0 0 368.2260305697082 276.0
39434.0 387.0 0 356.6465956461325 276.0
39455.0 372.0 0 345.06716072255676 276.0
39476.0 383.0 0 333.48772579898105 275.0
39497.0 382.0 0 321.9082908754053 275.0
39519.0 381.0 0 310.3288559518296 275.0
39540.0 376.0 0 298.74942102825383 275.0
39561.0 388.0 0 287.1699861046781 274.0
39582.0 375.0 0 275.59055118110234 274.0
39604.0 362.0 0 264.0111162575266 274.0
39624.0 394.0 0 252.4316813339509 274.0
39646.0 408.0 0 240.85224641037516 273.0
39667.0 405.0 0 229.27281148679944 273.0
39689.0 376.0 0 217.6933765632237 273.0
39709.0 356.0 0 206.11394163964798 272.0
39731.0 336.0 0 194.53450671607226 272.0
39752.0 356.0 0 182.95507179249648 272.0
39774.0 418.0 0 171.37563686892082 272.0
39794.0 480.0 0 159.7962019453451 271.0
39816.0 355.0 0 148.21676702176939 271.0
39837.0 351.0 0 136.6373320981936 271.0
39859.0 343.0 0 125.05789717461789 271.0
39879.0 343.0 0 113.47846225104217 270.0
39921.0 330.0 0 101.89902732746646 269.0
39942.0 384.0 500 90.31959240389068 269.0
39963.0 403.0 0 78.74015748031496 268.0
39985.0 411.0 0 125.01792980575415 267.0
40006.0 410.0 0 171.29570213119334 267.0
40027.0 391.0 0 217.5734744566325 266.0
40048.0 411.0 0 263.8512467820717 266.0
40070.0 345.0 0 310.1290191075109 265.0
40091.0 388.0 500 356.40679143295006 264.0
40112.0 348.0 0 402.6845637583893 264.0
40133.0 392.0 500 915.6279961649091 263.0
40155.0 393.0 0 1428.5714285714287 263.0
40175.0 437.0 0 1247.8991596638657 262.0
40197.0 317.0 0 1067.2268907563025 261.0
40218.0 373.0 500 886.5546218487395 261.0
40240.0 492.0 0 705.8823529411765 260.0
40260.0 369.0 0 705.8823529411765 260.0
40282.0 315.0 0 705.8823529411765 259.0
40303.0 483.0 500 705.8823529411765 259.0
40325.0 308.0 0 705.8823529411765 258.0
40345.0 312.0 0 655.8028616852146 257.0
40367.0 375.0 0 605.7233704292528 257.0
40388.0 375.0 0 555.643879173291 256.0
40429.0 322.0 0 505.5643879173291 256.0
40451.0 370.0 500 455.48489666136726 256.0
40472.0 277.0 0 405.4054054054054 256.0
40492.0 381.0 500 934.4100197758735 256.0
40514.0 384.0 0 1463.4146341463415 256.0
40536.0 405.0 0 1297.6371951219512 256.0
40557.0 382.0 0 1131.859756097561 256.0
40577.0 400.0 0 966.0823170731708 256.0
40599.0 394.0 0 800.3048780487806 256.0
40620.0 485.0 500 634.5274390243902 256.0
40642.0 388.0 0 468.75 256.0
40662.0 306.0 0 459.31208053691273 256.0
40684.0 311.0 0 449.8741610738255 256.0
40705.0 330.0 0 440.43624161073825 256.0
40727.0 504.0 0 430.99832214765104 256.0
40747.0 274.0 0 421.56040268456377 256.0
40769.0 335.0 500 412.12248322147656 256.0
40790.0 375.0 0 402.6845637583893 256.0
40811.0 358.0 0 395.8767097641646 256.0
40832.0 371.0 0 389.06885576993994 256.0
40854.0 295.0 0 382.2610017757153 256.0
40875.0 295.0 0 375.4531477814906 256.0
40916.0 224.0 0 368.6452937872659 255.0
40938.0 364.0 500 361.83743979304126 255.0
40958.0 452.0 0 355.0295857988166 255.0
40980.0 192.0 0 554.1467079928618 255.0
41001.0 360.0 500 753.2638301869072 255.0
41023.0 334.0 0 952.3809523809524 255.0
41043.0 318.0 0 885.44474393531 255.0
41065.0 330.0 0 818.5085354896676 255.0
41086.0 345.0 0 751.5723270440252 255.0
41108.0 352.0 0 684.6361185983828 255.0
41128.0 314.0 0 617.6999101527404 254.0
41150.0 320.0 0 550.7637017070979 254.0
41171.0 505.0 0 483.8274932614556 254.0
41192.0 296.0 0 416.89128481581315 254.0
41213.0 351.0 500 349.9550763701707 254.0
41235.0 314.0 0 283.0188679245283 254.0
41256.0 306.0 0 501.1792452830189 254.0
41277.0 353.0 500 719.3396226415094 254.0
41298.0 294.0 0 937.5 254.0
41320.0 343.0 500 1166.4244186046512 254.0
41341.0 336.0 0 1395.3488372093022 254.0
41362.0 300.0 0 1246.7318012935186 254.0
41383.0 300.0 0 1098.1147653777348 254.0
41424.0 260.0 0 949.4977294619512 255.0
41446.0 275.0 0 800.8806935461675 255.0
41467.0 250.0 0 652.2636576303838 256.0
41489.0 304.0 500 503.6466217146002 256.0
41509.0 294.0 0 355.0295857988166 257.0
41531.0 471.0 500 891.8005071851227 258.0
41552.0 312.0 0 1428.5714285714287 258.0
41573.0 319.0 0 1282.4048538334255 259.0
41594.0 254.0 0 1136.238279095422 259.0
41616.0 279.0 0 990.0717043574188 260.0
41637.0 327.0 0 843.9051296194154 260.0
41658.0 293.0 0 697.738554881412 261.0
41679.0 343.0 500 551.5719801434088 261.0
41701.0 335.0 0 405.4054054054054 262.0
41722.0 371.0 0 389.8034398034398 263.0
41743.0 422.0 0 374.2014742014742 263.0
41764.0 342.0 0 358.5995085995086 264.0
41786.0 308.0 0 342.997542997543 264.0
41807.0 334.0 0 327.3955773955774 265.0
41828.0 273.0 0 311.79361179361183 265.0
41849.0 284.0 0 296.1916461916462 266.0
41871.0 379.0 0 280.5896805896806 266.0
41891.0 379.0 0 264.987714987715 267.0
41933.0 219.0 0 249.3857493857494 267.0
41954.0 312.0 500 233.7837837837838 267.0
41975.0 332.0 0 218.1818181818182 268.0
41997.0 321.0 0 457.95454545454544 268.0
42018.0 361.0 500 697.7272727272727 268.0
42039.0 246.0 0 937.5 268.0
42060.0 269.0 0 864.4301470588235 269.0
42082.0 326.0 0 791.3602941176471 269.0
42103.0 466.0 0 718.2904411764706 269.0
42124.0 319.0 0 645.2205882352941 269.0
42145.0 292.0 0 572.1507352941177 270.0
42167.0 290.0 0 499.0808823529412 270.0
42188.0 338.0 500 426.01102941176475 270.0
42209.0 293.0 0 352.94117647058823 271.0
42230.0 333.0 500 890.7563025210084 271.0
42252.0 338.0 0 1428.5714285714287 271.0
42273.0 374.0 0 1301.4368464605432 271.0
42294.0 419.0 0 1174.302264349658 272.0
42315.0 352.0 0 1047.1676822387724 272.0
42337.0 378.0 0 920.033100127887 272.0
42358.0 371.0 0 792.8985180170015 272.0
42379.0 371.0 0 665.7639359061161 272.0
42421.0 282.0 0 538.6293537952307 272.0
42441.0 332.0 500 411.4947716843453 272.0
42463.0 354.0 0 284.3601895734597 271.0
42484.0 369.0 0 281.81928655862305 271.0
42505.0 363.0 0 279.2783835437864 271.0
42526.0 384.0 0 276.73748052894973 270.0
42548.0 382.0 0 274.1965775141131 270.0
42569.0 352.0 0 271.6556744992764 270.0
42590.0 322.0 0 269.1147714844397 269.0
42611.0 337.0 0 266.57386846960304 269.0
42633.0 360.0 0 264.0329654547664 269.0
42654.0 334.0 0 261.4920624399297 269.0
42675.0 459.0 500 258.95115942509307 268.0
42696.0 431.0 0 256.4102564102564 268.0
42718.0 354.0 0 318.3357522980165 268.0
42739.0 364.0 0 380.2612481857765 267.0
42760.0 356.0 0 442.1867440735365 267.0
42781.0 407.0 500 504.1122399612966 267.0
42803.0 417.0 0 566.0377358490566 267.0
42824.0 352.0 0 689.8584905660377 266.0
42845.0 416.0 500 813.6792452830189 266.0
42866.0 425.0 0 937.5 266.0
42888.0 425.0 0 854.2899408284023 266.0
42929.0 391.0 0 771.0798816568048 267.0
42950.0 401.0 0 687.8698224852071 267.0
42972.0 396.0 0 604.6597633136096 268.0
42992.0 388.0 0 521.4497041420118 269.0
43014.0 503.0 500 438.23964497041425 269.0
43035.0 350.0 0 355.0295857988166 270.0
43057.0 522.0 500 875.1892115040595 270.0
43077.0 364.0 0 1395.3488372093022 271.0
43099.0 395.0 0 1284.1158402808248 271.0
43120.0 412.0 0 1172.8828433523474 272.0
43141.0 422.0 0 1061.64984642387 272.0
43162.0 425.0 0 950.4168494953926 273.0
43184.0 409.0 0 839.1838525669152 274.0
43205.0 379.0 0 727.9508556384378 274.0
43226.0 391.0 0 616.7178587099604 275.0
43247.0 387.0 0 505.484861781483 275.0
43269.0 489.0 500 394.2518648530056 276.0
43290.0 484.0 0 283.0188679245283 276.0
43311.0 357.0 0 293.30611333514094 277.0
43332.0 380.0 0 303.5933587457535 277.0
43354.0 421.0 0 313.88060415636613 278.0
43375.0 421.0 0 324.16784956697876 279.0
43416.0 356.0 0 334.4550949775914 280.0
43438.0 411.0 500 344.74234038820396 281.0
43458.0 430.0 0 355.0295857988166 282.0
43480.0 433.0 0 344.37030509043603 283.0
43501.0 438.0 0 333.7110243820555 284.0
43523.0 409.0 0 323.05174367367493 284.0
43543.0 397.0 0 312.3924629652944 285.0
43564.0 404.0 0 301.73318225691384 286.0
43586.0 391.0 0 291.0739015485333 287.0
43608.0 411.0 0 280.4146208401528 288.0
43628.0 394.0 0 269.7553401317722 289.0
43649.0 377.0 0 259.0960594233917 289.0
43671.0 397.0 0 248.43677871501114 290.0
43691.0 372.0 0 237.7774980066306 291.0
43713.0 382.0 0 227.11821729825004 292.0
43734.0 391.0 0 216.4589365898695 293.0
43756.0 396.0 0 205.79965588148895 294.0
43776.0 370.0 0 195.1403751731084 295.0
43798.0 337.0 0 184.48109446472785 295.0
43819.0 336.0 0 173.82181375634732 296.0
43841.0 325.0 0 163.16253304796678 297.0
43861.0 487.0 500 152.50325233958623 298.0
43883.0 487.0 0 141.84397163120568 298.0
43924.0 273.0 0 332.65788584937525 298.0
43945.0 333.0 500 523.4718000675448 298.0
43967.0 338.0 0 714.2857142857143 297.0
43988.0 329.0 0 688.354952470439 297.0
44009.0 365.0 0 662.4241906551637 297.0
44030.0 384.0 0 636.4934288398882 297.0
44052.0 416.0 0 610.5626670246129 296.0
44073.0 399.0 0 584.6319052093376 296.0
44094.0 384.0 0 558.7011433940622 296.0
44115.0 382.0 0 532.7703815787868 296.0
44137.0 329.0 0 506.83961976351145 295.0
44158.0 347.0 0 480.9088579482361 295.0
44179.0 392.0 0 454.9780961329608 295.0
44200.0 355.0 0 429.0473343176854 295.0
44222.0 341.0 0 403.11657250241007 294.0
44242.0 344.0 0 377.18581068713473 294.0
44264.0 353.0 0 351.25504887185934 294.0
44285.0 343.0 0 325.32428705658396 294.0
44307.0 352.0 0 299.3935252413086 293.0
44327.0 348.0 0 273.4627634260333 293.0
44349.0 381.0 0 247.5320016107579 293.0
44370.0 319.0 0 221.60123979548257 293.0
44392.0 319.0 0 195.67047798020724 292.0
44433.0 249.0 0 169.7397161649319 292.0
44454.0 511.0 500 143.80895434965646 292.0
44475.0 332.0 0 117.87819253438114 292.0
44496.0 299.0 0 147.26106552640704 291.0
44518.0 296.0 0 176.64393851843292 291.0
44539.0 292.0 0 206.0268115104588 291.0
44560.0 311.0 0 235.4096845024847 291.0
44581.0 385.0 0 264.79255749451056 290.0
44603.0 315.0 0 294.17543048653647 290.0
44624.0 377.0 500 323.5583034785624 290.0
44645.0 405.0 0 352.94117647058823 290.0
44666.0 383.0 0 341.250695861941 290.0
44688.0 418.0 0 329.56021525329373 289.0
44709.0 353.0 0 317.8697346446465 289.0
44730.0 318.0 0 306.17925403599924 289.0
44751.0 325.0 0 294.488773427352 289.0
44773.0 365.0 0 282.7982928187048 289.0
44793.0 310.0 0 271.10781221005755 288.0
44815.0 346.0 0 259.4173316014103 288.0
44836.0 357.0 0 247.72685099276302 288.0
44858.0 314.0 0 236.0363703841158 288.0
44878.0 314.0 0 224.34588977546855 287.0
44920.0 253.0 0 212.6554091668213 287.0
44941.0 332.0 500 200.96492855817405 287.0
44962.0 305.0 0 189.2744479495268 287.0
44984.0 299.0 0 235.85370662460565 286.0
45005.0 328.0 0 282.4329652996845 286.0
45026.0 318.0 0 329.0122239747634 286.0
45047.0 300.0 0 375.59148264984225 286.0
45069.0 466.0 500 422.17074132492115 286.0
45090.0 302.0 0 468.75 285.0
45111.0 304.0 0 450.4400185270959 285.0
45132.0 351.0 0 432.13003705419175 285.0
45154.0 294.0 0 413.82005558128765 285.0
45175.0 324.0 0 395.5100741083835 285.0
45196.0 351.0 0 377.2000926354794 284.0
45217.0 354.0 0 358.8901111625753 284.0
45239.0 382.0 0 340.58012968967114 284.0
45260.0 402.0 0 322.270148216767 284.0
45281.0 391.0 0 303.96016674386294 283.0
45302.0 385.0 0 285.6501852709588 283.0
45324.0 344.0 0 267.34020379805463 283.0
45344.0 355.0 0 249.03022232515053 283.0
45366.0 354.0 0 230.72024085224643 283.0
45387.0 354.0 0 212.41025937934228 282.0
45428.0 224.0 0 194.10027790643818 282.0
45450.0 334.0 500 175.79029643353402 282.0
45471.0 355.0 0 157.48031496062993 282.0
45492.0 291.0 0 422.4471941007374 282.0
45513.0 338.0 500 687.4140732408449 282.0
45535.0 409.0 0 952.3809523809524 282.0
45556.0 354.0 0 873.8528968634434 282.0
45577.0 277.0 0 795.3248413459344 282.0
45598.0 314.0 0 716.7967858284254 282.0
45620.0 366.0 0 638.2687303109165 282.0
45641.0 311.0 0 559.7406747934074 282.0
45662.0 456.0 500 481.21261927589836 282.0
45683.0 311.0 0 402.6845637583893 282.0
45705.0 290.0 0 580.9563758389262 282.0
45726.0 350.0 500 759.2281879194632 282.0
45747.0 288.0 0 937.5 282.0
45768.0 409.0 500 1183.0357142857142 282.0
45790.0 327.0 0 1428.5714285714287 282.0
45811.0 338.0 0 1289.2670157068064 282.0
45832.0 398.0 0 1149.962602842184 282.0
45853.0 394.0 0 1010.6581899775617 282.0
45875.0 359.0 0 871.3537771129395 282.0
45895.0 359.0 0 732.0493642483173 282.0
45937.0 250.0 0 592.7449513836949 282.0
45959.0 335.0 500 453.44053851907256 282.0
45979.0 429.0 0 314.13612565445027 282.0
46001.0 312.0 0 526.884401229951 282.0
46022.0 398.0 500 739.6326768054516 282.0
46043.0 359.0 0 952.3809523809524 282.0
46064.0 393.0 0 890.7563025210084 282.0
46086.0 300.0 0 829.1316526610644 282.0
46107.0 389.0 500 767.5070028011205 282.0
46128.0 462.0 0 705.8823529411765 282.0
46149.0 337.0 0 666.975451597962 282.0
46171.0 350.0 0 628.0685502547476 282.0
46191.0 362.0 0 589.1616489115331 282.0
46213.0 324.0 0 550.2547475683186 282.0
46234.0 388.0 500 511.3478462251042 282.0
46256.0 524.0 0 472.4409448818898 282.0
46276.0 328.0 0 451.5430831809531 282.0
46298.0 324.0 0 430.6452214800164 282.0
46319.0 338.0 0 409.7473597790798 282.0
46341.0 396.0 0 388.8494980781431 282.0
46361.0 403.0 0 367.9516363772064 282.0
46383.0 403.0 0 347.05377467626977 282.0
46424.0 310.0 0 326.1559129753331 282.0
46445.0 413.0 500 305.2580512743964 282.0
46467.0 429.0 0 284.3601895734597 282.0
46488.0 420.0 0 284.2260574085666 282.0
46508.0 355.0 0 284.0919252436734 282.0
46530.0 376.0 0 283.9577930787803 282.0
46552.0 413.0 0 283.8236609138871 282.0
46572.0 344.0 0 283.689528748994 282.0
46593.0 356.0 0 283.5553965841009 282.0
46615.0 385.0 0 283.4212644192077 282.0
46636.0 369.0 0 283.2871322543146 282.0
46657.0 434.0 500 283.1530000894214 282.0
46678.0 328.0 0 283.0188679245283 282.0
46700.0 377.0 500 839.1838525669153 282.0
46721.0 400.0 0 1395.3488372093022 282.0
46742.0 381.0 0 1253.9283469516026 282.0
46763.0 364.0 0 1112.5078566939032 282.0
46785.0 338.0 0 971.0873664362036 282.0
46805.0 354.0 0 829.6668761785041 282.0
46827.0 339.0 0 688.2463859208045 282.0
46848.0 468.0 500 546.825895663105 282.0
46870.0 398.0 0 405.4054054054054 282.0
46890.0 398.0 0 446.91119691119695 282.0
46932.0 246.0 0 488.41698841698843 284.0
46953.0 329.0 500 529.9227799227799 285.0
46974.0 338.0 0 571.4285714285714 286.0
46996.0 341.0 0 551.0546947918612 287.0
47017.0 376.0 0 530.6808181551509 287.0
47038.0 386.0 0 510.3069415184405 288.0
47059.0 412.0 0 489.93306488173016 289.0
47081.0 372.0 0 469.55918824501987 290.0
47102.0 394.0 0 449.1853116083096 291.0
47123.0 336.0 0 428.8114349715993 292.0
47144.0 343.0 0 408.43755833488893 293.0
47166.0 331.0 0 388.0636816981786 294.0
47187.0 355.0 0 367.6898050614683 295.0
47208.0 317.0 0 347.315928424758 295.0
47229.0 316.0 0 326.9420517880477 296.0
47251.0 325.0 0 306.56817515133736 297.0
47271.0 308.0 0 286.19429851462706 298.0
47293.0 335.0 0 265.8204218779168 299.0
47314.0 331.0 0 245.44654524120642 300.0
47336.0 331.0 0 225.07266860449613 301.0
47356.0 305.0 0 204.69879196778578 302.0
47378.0 305.0 0 184.3249153310755 302.0
47419.0 202.0 0 163.9510386943652 302.0
47440.0 336.0 500 143.57716205765485 301.0
47462.0 414.0 0 123.20328542094455 301.0
47483.0 299.0 0 163.1291823262938 300.0
47504.0 299.0 0 203.05507923164305 300.0
47525.0 295.0 0 242.9809761369923 300.0
47547.0 315.0 0 282.90687304234154 299.0
47568.0 304.0 0 322.8327699476908 299.0
47589.0 346.0 500 362.75866685304004 298.0
47610.0 353.0 0 402.6845637583893 298.0
47632.0 381.0 0 387.93344519015665 297.0
47653.0 396.0 0 373.18232662192395 297.0
47674.0 396.0 0 358.4312080536913 297.0
47695.0 381.0 0 343.6800894854586 296.0
47717.0 363.0 0 328.92897091722597 296.0
47738.0 346.0 0 314.17785234899327 295.0
47759.0 325.0 0 299.4267337807606 295.0
47780.0 345.0 0 284.675615212528 294.0
47802.0 350.0 0 269.92449664429535 294.0
47822.0 368.0 0 255.17337807606265 294.0
47844.0 333.0 0 240.42225950782998 293.0
47865.0 334.0 0 225.6711409395973 293.0
47887.0 334.0 0 210.92002237136464 293.0
47928.0 303.0 0 196.168903803132 293.0
47949.0 354.0 500 181.41778523489933 293.0
47970.0 342.0 0 166.66666666666666 293.0
47991.0 350.0 0 246.54088050314465 293.0
48013.0 325.0 0 326.41509433962267 293.0
48034.0 321.0 0 406.28930817610063 293.0
48055.0 507.0 500 486.1635220125787 294.0
48076.0 407.0 0 566.0377358490566 294.0
48098.0 334.0 0 542.8830689320692 294.0
48119.0 354.0 0 519.7284020150819 294.0
48140.0 347.0 0 496.57373509809446 294.0
48161.0 370.0 0 473.41906818110704 294.0
48183.0 353.0 0 450.26440126411967 294.0
48204.0 377.0 0 427.1097343471323 294.0
48225.0 396.0 0 403.9550674301449 295.0
48246.0 421.0 0 380.80040051315746 295.0
48268.0 417.0 0 357.6457335961701 295.0
48288.0 415.0 0 334.4910666791827 295.0
48310.0 379.0 0 311.33639976219524 295.0
48331.0 368.0 0 288.18173284520793 295.0
48353.0 397.0 0 265.0270659282205 295.0
48373.0 356.0 0 241.87239901123314 295.0
48395.0 356.0 0 218.71773209424572 295.0
48436.0 294.0 0 195.56306517725835 295.0
48457.0 377.0 500 172.40839826027099 294.0
48479.0 361.0 0 149.2537313432836 294.0
48500.0 348.0 0 147.24093610322842 294.0
48521.0 369.0 0 145.22814086317325 293.0
48542.0 388.0 0 143.21534562311808 293.0
48564.0 366.0 0 141.2025503830629 293.0
48585.0 344.0 0 139.18975514300774 293.0
48606.0 345.0 0 137.17695990295258 292.0
48627.0 332.0 0 135.16416466289743 292.0
48649.0 338.0 0 133.15136942284227 292.0
48670.0 425.0 0 131.1385741827871 291.0
48691.0 443.0 0 129.12577894273193 291.0
48712.0 360.0 0 127.11298370267676 291.0
48734.0 356.0 0 125.10018846262159 290.0
48755.0 349.0 0 123.08739322256642 290.0
48776.0 350.0 0 121.07459798251125 290.0
48797.0 345.0 0 119.06180274245608 290.0
48819.0 364.0 0 117.04900750240091 289.0
48840.0 387.0 0 115.03621226234574 289.0
48861.0 409.0 0 113.02341702229057 289.0
48882.0 409.0 0 111.01062178223542 289.0
48923.0 338.0 0 108.99782654218026 289.0
48945.0 370.0 0 106.9850313021251 289.0
48966.0 360.0 0 104.97223606206992 289.0
48987.0 358.0 0 102.95944082201476 289.0
49008.0 350.0 0 100.94664558195959 289.0
49030.0 358.0 0 98.93385034190442 289.0
49051.0 351.0 0 96.92105510184925 289.0
49072.0 358.0 0 94.90825986179408 289.0
49093.0 345.0 0 92.89546462173891 289.0
49115.0 338.0 0 90.88266938168374 289.0
49136.0 344.0 0 88.86987414162857 289.0
49157.0 353.0 0 86.85707890157342 289.0
49178.0 352.0 0 84.84428366151825 289.0
49200.0 361.0 0 82.83148842146308 289.0
49220.0 330.0 0 80.81869318140791 289.0
49242.0 331.0 0 78.80589794135274 289.0
49263.0 334.0 0 76.79310270129757 289.0
49285.0 332.0 0 74.78030746124242 289.0
49305.0 489.0 500 72.76751222118725 289.0
49327.0 339.0 0 70.75471698113208 289.0
49348.0 334.0 0 126.98947503529715 289.0
49370.0 319.0 0 183.22423308946222 289.0
49390.0 319.0 0 239.4589911436273 288.0
49432.0 290.0 0 295.6937491977924 286.0
49452.0 361.0 500 351.9285072519574 286.0
49474.0 412.0 0 408.16326530612247 285.0
49496.0 406.0 0 394.8581271871103 284.0
49517.0 409.0 0 381.55298906809816 283.0
49537.0 392.0 0 368.247850949086 282.0
49559.0 387.0 0 354.9427128300738 282.0
49580.0 374.0 0 341.63757471106163 281.0
49601.0 361.0 0 328.3324365920495 280.0
49622.0 363.0 0 315.0272984730373 279.0
49644.0 378.0 0 301.72216035402516 278.0
49665.0 377.0 0 288.41702223501295 278.0
49686.0 361.0 0 275.1118841160008 277.0
49707.0 379.0 0 261.80674599698864 276.0
49729.0 363.0 0 248.50160787797648 275.0
49750.0 369.0 0 235.1964697589643 274.0
49771.0 389.0 0 221.89133163995214 274.0
49792.0 365.0 0 208.58619352093996 273.0
49814.0 381.0 0 195.2810554019278 272.0
49835.0 377.0 0 181.97591728291562 271.0
49856.0 339.0 0 168.6707791639035 270.0
49877.0 339.0 0 155.3656410448913 270.0
49918.0 462.0 500 142.06050292587912 269.0
49940.0 406.0 0 128.75536480686696 269.0
49961.0 338.0 0 129.37642009593537 269.0
49983.0 342.0 0 129.9974753850038 269.0
50003.0 361.0 0 130.61853067407222 269.0
50025.0 361.0 0 131.23958596314063 269.0
50046.0 361.0 0 131.86064125220906 269.0
50068.0 375.0 0 132.48169654127747 269.0
50088.0 415.0 0 133.10275183034588 269.0
50110.0 410.0 0 133.7238071194143 269.0
50131.0 438.0 0 134.34486240848273 268.0
50152.0 416.0 0 134.96591769755113 268.0
50173.0 392.0 0 135.58697298661954 268.0
50195.0 378.0 0 136.20802827568798 268.0
50216.0 381.0 0 136.8290835647564 268.0
50237.0 363.0 0 137.4501388538248 268.0
50258.0 377.0 0 138.0711941428932 268.0
50280.0 379.0 0 138.69224943196164 268.0
50301.0 382.0 0 139.31330472103005 268.0
50322.0 337.0 0 139.93436001009846 268.0
50343.0 391.0 500 140.5554152991669 268.0
50365.0 366.0 0 141.1764705882353 268.0
50386.0 366.0 0 185.214626391097 268.0
50427.0 354.0 0 229.25278219395867 268.0
50449.0 388.0 0 273.2909379968204 268.0
50469.0 313.0 0 317.329093799682 268.0
50491.0 376.0 500 361.3672496025438 268.0
50512.0 380.0 0 405.4054054054054 268.0
50534.0 339.0 0 587.7305877305878 268.0
50554.0 527.0 500 770.05577005577 268.0
50576.0 342.0 0 952.3809523809524 268.0
50597.0 384.0 500 1173.8648947951274 268.0
50619.0 334.0 0 1395.3488372093022 268.0
50639.0 335.0 0 1332.322968382545 268.0
50661.0 388.0 0 1269.2970995557878 268.0
50682.0 366.0 0 1206.2712307290305 268.0
50703.0 381.0 0 1143.2453619022733 268.0
50724.0 408.0 0 1080.219493075516 268.0
50746.0 417.0 0 1017.1936242487589 268.0
50767.0 401.0 0 954.1677554220016 268.0
50788.0 404.0 0 891.1418865952443 268.0
50809.0 395.0 0 828.116017768487 268.0
50831.0 359.0 0 765.0901489417298 268.0
50852.0 364.0 0 702.0642801149725 268.0
50873.0 372.0 0 639.0384112882153 268.0
50894.0 372.0 0 576.012542461458 269.0
50935.0 288.0 0 512.9866736347009 269.0
50957.0 301.0 0 449.96080480794353 269.0
50978.0 376.0 0 386.9349359811863 269.0
51000.0 363.0 0 323.90906715442907 269.0
51020.0 307.0 0 260.88319832767183 269.0
51042.0 385.0 500 197.8573295009146 269.0
51063.0 377.0 0 134.8314606741573 270.0
51085.0 305.0 0 135.18293295247872 270.0
51105.0 331.0 0 135.53440523080013 270.0
51127.0 325.0 0 135.88587750912154 270.0
51148.0 331.0 0 136.23734978744295 270.0
51170.0 442.0 0 136.5888220657644 270.0
51190.0 374.0 0 136.9402943440858 270.0
51212.0 275.0 0 137.2917666224072 271.0
51233.0 298.0 0 137.64323890072862 271.0
51254.0 372.0 0 137.99471117905003 271.0
51275.0 345.0 0 138.34618345737144 271.0
51297.0 379.0 0 138.69765573569285 271.0
51318.0 358.0 0 139.04912801401426 271.0
51339.0 377.0 0 139.40060029233567 271.0
51360.0 449.0 0 139.75207257065708 271.0
51382.0 449.0 0 140.10354484897852 271.0
51423.0 304.0 0 140.45501712729993 271.0
51444.0 265.0 0 140.80648940562133 271.0
51466.0 331.0 500 141.15796168394274 271.0
51486.0 367.0 0 141.50943396226415 271.0
51508.0 365.0 0 140.68885924231836 271.0
51529.0 328.0 0 139.86828452237256 271.0
51551.0 342.0 0 139.0477098024268 271.0
51571.0 313.0 0 138.227135082481 271.0
51593.0 320.0 0 137.4065603625352 271.0
51614.0 318.0 0 136.5859856425894 271.0
51636.0 343.0 0 135.76541092264364 270.0
51656.0 388.0 0 134.94483620269784 270.0
51678.0 337.0 0 134.12426148275205 270.0
51699.0 308.0 0 133.30368676280625 270.0
51721.0 310.0 0 132.48311204286045 270.0
51741.0 302.0 0 131.6625373229147 270.0
51763.0 311.0 0 130.8419626029689 270.0
51784.0 449.0 0 130.0213878830231 270.0
51806.0 383.0 0 129.2008131630773 270.0
51826.0 344.0 0 128.38023844313153 270.0
51848.0 327.0 0 127.55966372318574 270.0
51869.0 328.0 0 126.73908900323994 270.0
51890.0 328.0 0 125.91851428329416 270.0
51932.0 301.0 0 125.09793956334836 270.0
51952.0 370.0 500 124.27736484340258 271.0
51974.0 385.0 0 123.45679012345678 271.0
51995.0 408.0 0 123.69597427889124 271.0
52017.0 425.0 0 123.93515843432569 272.0
52037.0 354.0 0 124.17434258976014 272.0
52059.0 343.0 0 124.41352674519459 272.0
52080.0 376.0 0 124.65271090062905 273.0
52102.0 348.0 0 124.8918950560635 273.0
52122.0 344.0 0 125.13107921149795 273.0
52144.0 376.0 0 125.3702633669324 274.0
52165.0 365.0 0 125.60944752236686 274.0
52187.0 353.0 0 125.84863167780131 274.0
52207.0 336.0 0 126.08781583323577 275.0
52229.0 375.0 0 126.32699998867021 275.0
52250.0 340.0 0 126.56618414410467 275.0
52272.0 369.0 0 126.80536829953913 276.0
52292.0 381.0 0 127.04455245497357 276.0
52314.0 403.0 0 127.28373661040803 276.0
52335.0 290.0 0 127.52292076584249 277.0
52357.0 321.0 0 127.76210492127693 277.0
52377.0 321.0 0 128.00128907671137 278.0
52419.0 454.0 500 128.24047323214583 278.0
52440.0 335.0 0 128.4796573875803 278.0
52461.0 335.0 0 156.79839843898483 278.0
52483.0 318.0 0 185.11713949038938 278.0
52503.0 304.0 0 213.4358805417939 279.0
52524.0 301.0 0 241.75462159319844 279.0
52546.0 330.0 0 270.073362644603 279.0
52568.0 295.0 0 298.3921036960075 279.0
52588.0 383.0 500 326.710844747412 279.0
52609.0 383.0 0 355.0295857988166 279.0
52631.0 336.0 0 344.4420256872019 280.0
52652.0 334.0 0 333.85446557558726 280.0
52673.0 332.0 0 323.26690546397265 280.0
52694.0 272.0 0 312.679345352358 280.0
52716.0 269.0 0 302.0917852407433 280.0
52737.0 307.0 0 291.50422512912866 280.0
52758.0 262.0 0 280.916665017514 281.0
52779.0 290.0 0 270.3291049058994 281.0
52801.0 322.0 0 259.7415447942847 281.0
52821.0 313.0 0 249.15398468267006 281.0
52843.0 292.0 0 238.5664245710554 281.0
52864.0 364.0 500 227.97886445944073 281.0
52886.0 364.0 0 217.3913043478261 281.0
52927.0 285.0 0 248.72698785742264 281.0
52948.0 315.0 0 280.0626713670192 281.0
52969.0 340.0 0 311.39835487661577 280.0
52990.0 321.0 0 342.7340383862123 280.0
53012.0 431.0 500 374.06972189580887 280.0
53033.0 453.0 0 405.4054054054054 279.0
53054.0 318.0 0 405.4054054054054 279.0
53075.0 352.0 0 405.4054054054054 279.0
53097.0 363.0 0 405.4054054054054 278.0
53118.0 387.0 0 405.4054054054054 278.0
53139.0 360.0 0 405.4054054054054 278.0
53160.0 408.0 500 405.4054054054054 278.0
53182.0 410.0 0 405.4054054054054 277.0
53203.0 422.0 0 392.5665605993475 277.0
53224.0 459.0 0 379.7277157932896 277.0
53245.0 442.0 0 366.88887098723166 276.0
53267.0 423.0 0 354.05002618117373 276.0
53288.0 396.0 0 341.2111813751158 276.0
53309.0 415.0 0 328.3723365690579 275.0
53330.0 402.0 0 315.533491763 275.0
53352.0 405.0 0 302.69464695694205 275.0
53372.0 401.0 0 289.85580215088413 275.0
53394.0 401.0 0 277.0169573448262 275.0
53436.0 385.0 0 264.1781125387683 276.0
53456.0 392.0 0 251.33926773271037 276.0
53478.0 405.0 0 238.50042292665245 277.0
53499.0 421.0 0 225.66157812059453 277.0
53520.0 436.0 0 212.82273331453663 278.0
53541.0 397.0 0 199.98388850847869 278.0
53563.0 402.0 0 187.14504370242076 279.0
53584.0 398.0 0 174.30619889636282 279.0
53605.0 404.0 0 161.46735409030492 280.0
53626.0 396.0 0 148.628509284247 280.0
53648.0 519.0 500 135.78966447818908 281.0
53669.0 461.0 0 122.95081967213115 282.0
53690.0 384.0 0 268.6837029893925 282.0
53711.0 376.0 0 414.4165863066538 283.0
53733.0 436.0 500 560.1494696239151 283.0
53754.0 413.0 0 705.8823529411765 284.0
53775.0 411.0 0 674.9585406301824 284.0
53796.0 415.0 0 644.0347283191884 285.0
53818.0 441.0 0 613.1109160081943 285.0
53839.0 480.0 0 582.1871036972003 286.0
53860.0 445.0 0 551.2632913862062 286.0
53881.0 445.0 0 520.3394790752122 286.0
53922.0 372.0 0 489.41566676421814 285.0
53944.0 384.0 0 458.49185445322405 284.0
53965.0 412.0 0 427.56804214223 284.0
53987.0 370.0 0 396.644229831236 283.0
54007.0 371.0 0 365.7204175202419 282.0
54029.0 413.0 0 334.7966052092479 281.0
54050.0 395.0 0 303.8727928982538 281.0
54071.0 395.0 0 272.94898058725977 280.0
54092.0 390.0 0 242.02516827626567 279.0
54114.0 313.0 0 211.1013559652717 278.0
54135.0 401.0 500 180.17754365427766 278.0
54156.0 414.0 0 149.2537313432836 277.0
54177.0 446.0 0 288.4108867427568 276.0
54199.0 339.0 0 427.56804214223007 276.0
54220.0 421.0 500 566.7251975417032 275.0
54241.0 306.0 0 705.8823529411765 274.0
54262.0 342.0 0 661.0451906084322 273.0
54284.0 403.0 0 616.208028275688 273.0
54305.0 488.0 0 571.3708659429437 272.0
54326.0 327.0 0 526.5337036101994 271.0
54347.0 270.0 0 481.6965412774552 271.0
54369.0 304.0 0 436.85937894471095 270.0
54390.0 304.0 0 392.0222166119667 270.0
54431.0 232.0 0 347.1850542792224 271.0
54453.0 298.0 500 302.34789194647817 272.0
54473.0 430.0 0 257.51072961373393 273.0
54495.0 355.0 0 263.9861456215647 274.0
54516.0 374.0 0 270.4615616293954 274.0
54538.0 417.0 0 276.9369776372261 275.0
54558.0 311.0 0 283.41239364505685 276.0
54580.0 323.0 0 289.8878096528876 276.0
54601.0 352.0 0 296.36322566071834 277.0
54623.0 256.0 0 302.83864166854903 278.0
54643.0 312.0 500 309.3140576763798 279.0
54665.0 316.0 0 315.7894736842105 279.0
54686.0 380.0 0 307.0904913010176 280.0
54707.0 264.0 0 298.3915089178247 281.0
54728.0 291.0 0 289.6925265346318 281.0
54750.0 285.0 0 280.99354415143887 282.0
54771.0 312.0 0 272.29456176824596 283.0
54792.0 283.0 0 263.59557938505304 284.0
54813.0 306.0 0 254.89659700186016 284.0
54835.0 373.0 0 246.19761461866725 285.0
54856.0 314.0 0 237.49863223547436 286.0
54877.0 314.0 0 228.79964985228145 287.0
54919.0 156.0 0 220.10066746908853 286.0
54939.0 495.0 500 211.40168508589562 286.0
54961.0 284.0 0 202.7027027027027 286.0
54982.0 404.0 500 799.0257699560025 286.0
55004.0 249.0 0 1395.3488372093022 286.0
55024.0 254.0 0 1241.5308551547334 286.0
55046.0 288.0 0 1087.7128731001649 285.0
55067.0 308.0 0 933.8948910455961 285.0
55089.0 306.0 0 780.0769089910273 285.0
55109.0 354.0 500 626.2589269364585 285.0
55131.0 366.0 0 472.4409448818898 285.0
55152.0 439.0 0 457.5034738304771 285.0
55173.0 351.0 0 442.5660027790644 285.0
55194.0 343.0 0 427.6285317276517 285.0
55216.0 330.0 0 412.691060676239 284.0
55237.0 345.0 0 397.7535896248263 284.0
55258.0 287.0 0 382.81611857341363 284.0
55279.0 348.0 500 367.87864752200096 284.0
55301.0 311.0 0 352.94117647058823 284.0
55322.0 341.0 0 441.1764705882353 284.0
55343.0 283.0 0 529.4117647058823 284.0
55364.0 364.0 500 617.6470588235294 284.0
55386.0 364.0 0 705.8823529411765 283.0
55427.0 198.0 0 708.6834733893558 283.0
55448.0 289.0 500 711.484593837535 283.0
55470.0 335.0 0 714.2857142857143 282.0
55490.0 328.0 0 670.0083542188805 282.0
55512.0 363.0 0 625.7309941520468 282.0
55533.0 321.0 0 581.453634085213 281.0
55555.0 330.0 0 537.1762740183793 281.0
55575.0 422.0 0 492.8989139515455 281.0
55596.0 460.0 0 448.62155388471183 280.0
55618.0 337.0 0 404.344193817878 280.0
55638.0 443.0 500 360.06683375104427 280.0
55660.0 278.0 0 315.7894736842105 280.0
55681.0 310.0 0 312.3795404002965 279.0
55703.0 359.0 0 308.9696071163825 279.0
55723.0 312.0 0 305.5596738324685 279.0
55745.0 345.0 0 302.14974054855446 278.0
55766.0 374.0 0 298.7398072646405 278.0
55788.0 392.0 0 295.32987398072646 278.0
55808.0 391.0 0 291.91994069681243 277.0
55830.0 364.0 0 288.5100074128984 277.0
55851.0 415.0 500 285.10007412898443 277.0
55873.0 322.0 0 281.6901408450704 277.0
55893.0 322.0 0 425.88866532528505 276.0
55935.0 376.0 500 570.0871898054997 276.0
55956.0 341.0 0 714.2857142857143 276.0
55977.0 395.0 500 1071.4285714285716 276.0
55999.0 263.0 0 1428.5714285714287 276.0
56020.0 343.0 500 1411.9601328903655 276.0
56041.0 349.0 0 1395.3488372093022 276.0
56062.0 374.0 0 1222.9822161422708 276.0
56084.0 278.0 0 1050.6155950752393 276.0
56105.0 471.0 500 878.2489740082079 276.0
56126.0 274.0 0 705.8823529411765 276.0
56147.0 330.0 500 1067.2268907563025 276.0
56169.0 428.0 0 1428.5714285714287 276.0
56190.0 242.0 0 1264.8809523809525 276.0
56211.0 340.0 500 1101.1904761904761 276.0
56232.0 408.0 0 937.5 276.0
56254.0 419.0 0 879.5955882352941 276.0
56275.0 361.0 0 821.6911764705883 276.0
56296.0 470.0 500 763.7867647058823 276.0
56317.0 288.0 0 705.8823529411765 276.0
56339.0 437.0 500 1050.6155950752393 276.0
56359.0 326.0 0 1395.3488372093022 276.0
56381.0 326.0 0 1260.612772240679 275.0
56422.0 340.0 0 1125.8767072720561 275.0
56443.0 483.0 0 991.140642303433 275.0
56465.0 507.0 0 856.4045773348098 275.0
56486.0 558.0 0 721.6685123661866 275.0
56507.0 349.0 0 586.9324473975636 275.0
56528.0 465.0 500 452.1963824289405 275.0
56550.0 309.0 0 317.46031746031747 275.0
56571.0 454.0 500 856.4045773348099 275.0
56592.0 329.0 0 1395.3488372093022 275.0
56613.0 418.0 500 1411.9601328903655 275.0
56635.0 560.0 0 1428.5714285714287 275.0
56656.0 273.0 0 1264.8809523809525 275.0
56677.0 557.0 500 1101.1904761904761 275.0
56698.0 328.0 0 937.5 275.0
56720.0 561.0 500 1166.4244186046512 275.0
56741.0 243.0 0 1395.3488372093022 275.0
56762.0 433.0 500 1411.9601328903655 275.0
56783.0 423.0 0 1428.5714285714287 275.0
56805.0 393.0 0 1247.8991596638657 275.0
56826.0 329.0 0 1067.2268907563025 275.0
56847.0 454.0 500 886.5546218487395 275.0
56868.0 514.0 0 705.8823529411765 275.0
56890.0 514.0 0 656.2625050020008 275.0
56931.0 410.0 0 606.6426570628252 276.0
56952.0 435.0 0 557.0228091236495 277.0
56974.0 387.0 0 507.40296118447384 277.0
56994.0 514.0 500 457.7831132452981 278.0
57016.0 355.0 0 408.16326530612247 279.0
57037.0 391.0 0 397.53401360544217 279.0
57058.0 547.0 0 386.9047619047619 280.0
57079.0 457.0 0 376.2755102040816 281.0
57101.0 385.0 0 365.6462585034014 281.0
57122.0 409.0 0 355.0170068027211 282.0
57143.0 526.0 0 344.38775510204084 282.0
57164.0 341.0 0 333.75850340136054 283.0
57186.0 554.0 500 323.1292517006803 284.0
57207.0 294.0 0 312.5 284.0
57228.0 397.0 500 870.5357142857143 285.0
57249.0 542.0 0 1428.5714285714287 286.0
57271.0 314.0 0 1264.8809523809525 286.0
57292.0 456.0 500 1101.1904761904761 287.0
57313.0 376.0 0 937.5 288.0
57334.0 366.0 0 854.5918367346939 288.0
57356.0 360.0 0 771.6836734693877 289.0
57377.0 373.0 0 688.7755102040817 289.0
57398.0 373.0 0 605.8673469387754 290.0
57440.0 235.0 0 522.9591836734694 290.0
57460.0 329.0 500 440.05102040816325 290.0
57482.0 302.0 0 357.14285714285717 290.0
57503.0 399.0 500 876.2458471760797 290.0
57524.0 399.0 0 1395.3488372093022 290.0
57545.0 361.0 0 1242.7325581395348 290.0
57567.0 423.0 500 1090.1162790697674 290.0
57588.0 408.0 0 937.5 290.0
57609.0 346.0 0 861.4864864864865 290.0
57630.0 352.0 0 785.472972972973 290.0
57652.0 373.0 0 709.4594594594595 290.0
57673.0 515.0 0 633.445945945946 290.0
57694.0 282.0 0 557.4324324324325 290.0
57715.0 395.0 500 481.41891891891896 290.0
57737.0 405.0 0 405.4054054054054 290.0
57758.0 453.0 0 390.6159378262383 290.0
57779.0 294.0 0 375.82647024707114 290.0
57800.0 311.0 0 361.03700266790395 290.0
57822.0 324.0 0 346.2475350887368 290.0
57843.0 395.0 0 331.4580675095697 290.0
57864.0 232.0 0 316.66859993040254 290.0
57885.0 232.0 0 301.8791323512354 290.0
57926.0 204.0 0 287.0896647720682 290.0
57948.0 266.0 500 272.30019719290107 290.0
57969.0 240.0 0 257.51072961373393 290.0
57990.0 261.0 0 319.21613086079844 290.0
58011.0 401.0 0 380.921532107863 290.0
58033.0 154.0 0 442.62693335492753 290.0
58054.0 213.0 500 504.3323346019921 289.0
58075.0 227.0 0 566.0377358490566 289.0
58096.0 218.0 0 689.8584905660377 289.0
58118.0 420.0 500 813.6792452830189 289.0
58139.0 297.0 0 937.5 289.0
58160.0 222.0 0 886.7994100294985 289.0
58181.0 234.0 0 836.098820058997 289.0
58203.0 264.0 0 785.3982300884956 289.0
58224.0 265.0 0 734.6976401179941 288.0
58245.0 273.0 0 683.9970501474927 288.0
58266.0 279.0 0 633.2964601769911 288.0
58288.0 352.0 0 582.5958702064897 288.0
58309.0 370.0 0 531.8952802359881 288.0
58330.0 380.0 0 481.1946902654867 288.0
58351.0 363.0 0 430.4941002949853 288.0
58373.0 371.0 0 379.7935103244838 288.0
58394.0 371.0 0 329.0929203539823 288.0
58435.0 170.0 0 278.39233038348084 288.0
58457.0 389.0 500 227.69174041297936 288.0
58477.0 326.0 0 176.99115044247787 288.0
58499.0 364.0 0 176.38382786743014 288.0
58520.0 375.0 0 175.77650529238244 288.0
58540.0 354.0 0 175.1691827173347 288.0
58562.0 335.0 0 174.561860142287 288.0
58584.0 241.0 0 173.95453756723927 288.0
58605.0 280.0 0 173.34721499219157 288.0
58625.0 338.0 0 172.73989241714384 288.0
58647.0 319.0 0 172.13256984209613 288.0
58668.0 287.0 0 171.5252472670484 288.0
58690.0 256.0 0 170.9179246920007 288.0
58710.0 261.0 0 170.31060211695296 288.0
58732.0 359.0 0 169.70327954190526 288.0
58753.0 399.0 0 169.09595696685753 288.0
58774.0 346.0 0 168.48863439180982 288.0
58795.0 247.0 0 167.8813118167621 288.0
58817.0 298.0 500 167.2739892417144 288.0
58838.0 331.0 0 166.66666666666666 288.0
58859.0 394.0 0 228.57142857142856 288.0
58880.0 394.0 0 290.4761904761905 288.0
58921.0 296.0 0 352.38095238095235 288.0
58943.0 402.0 500 414.2857142857143 288.0
58964.0 406.0 0 476.1904761904762 288.0
58986.0 388.0 0 533.6134453781513 288.0
59006.0 375.0 0 591.0364145658264 288.0
59028.0 473.0 500 648.4593837535015 288.0
59049.0 316.0 0 705.8823529411765 288.0
59070.0 415.0 500 1067.2268907563025 288.0
59091.0 390.0 0 1428.5714285714287 288.0
59113.0 341.0 0 1264.8809523809525 288.0
59134.0 430.0 500 1101.1904761904761 288.0
59155.0 338.0 0 937.5 288.0
59176.0 414.0 500 1183.0357142857142 288.0
59198.0 369.0 0 1428.5714285714287 288.0
59219.0 385.0 0 1247.8991596638657 288.0
59240.0 380.0 0 1067.2268907563025 288.0
59261.0 435.0 500 886.5546218487395 288.0
59283.0 331.0 0 705.8823529411765 288.0
59303.0 359.0 0 655.7605290636965 288.0
59325.0 553.0 0 605.6387051862165 288.0
59346.0 420.0 0 555.5168813087365 288.0
59368.0 353.0 0 505.39505743125653 288.0
59388.0 353.0 0 455.27323355377655 288.0
59430.0 397.0 500 405.15140967629657 288.0
59451.0 365.0 0 355.0295857988166 288.0
59472.0 417.0 500 891.8005071851227 288.0
59494.0 426.0 0 1428.5714285714287 288.0
59515.0 464.0 0 1357.9323526967507 288.0
59536.0 455.0 0 1287.2932768220728 288.0
59557.0 419.0 0 1216.6542009473947 288.0
59579.0 422.0 0 1146.0151250727167 288.0
59599.0 398.0 0 1075.3760491980388 288.0
59621.0 383.0 0 1004.7369733233609 288.0
59642.0 368.0 0 934.0978974486828 288.0
59664.0 404.0 0 863.4588215740049 288.0
59684.0 396.0 0 792.8197456993269 288.0
59706.0 372.0 0 722.1806698246488 288.0
59727.0 381.0 0 651.5415939499709 288.0
59749.0 390.0 0 580.902518075293 288.0
59769.0 401.0 0 510.2634422006149 288.0
59791.0 406.0 0 439.624366325937 288.0
59812.0 414.0 0 368.98529045125883 288.0
59834.0 366.0 0 298.34621457658113 288.0
59854.0 414.0 500 227.70713870190298 288.0
59876.0 375.0 0 157.06806282722513 288.0
59897.0 375.0 0 154.91853881266135 287.0
59938.0 385.0 0 152.76901479809754 285.0
59960.0 391.0 0 150.61949078353376 285.0
59980.0 373.0 0 148.46996676896998 284.0
60002.0 364.0 0 146.32044275440617 283.0
60023.0 381.0 0 144.1709187398424 282.0
60045.0 387.0 0 142.0213947252786 281.0
60065.0 355.0 0 139.8718707107148 281.0
60087.0 384.0 0 137.72234669615102 280.0
60108.0 397.0 0 135.57282268158724 279.0
60130.0 406.0 0 133.42329866702346 278.0
60150.0 365.0 0 131.27377465245965 278.0
60172.0 341.0 0 129.12425063789587 277.0
60193.0 296.0 0 126.97472662333209 276.0
60215.0 315.0 0 124.8252026087683 275.0
60235.0 320.0 0 122.6756785942045 275.0
60257.0 344.0 0 120.52615457964072 274.0
60278.0 285.0 0 118.37663056507692 273.0
60300.0 320.0 0 116.22710655051313 272.0
60320.0 297.0 0 114.07758253594935 272.0
60342.0 294.0 0 111.92805852138555 271.0
60363.0 307.0 0 109.77853450682176 270.0
60384.0 307.0 0 107.62901049225798 270.0
60426.0 194.0 0 105.47948647769418 270.0
60447.0 266.0 500 103.32996246313039 270.0
60468.0 294.0 0 101.1804384485666 270.0
60489.0 264.0 0 379.9536256323777 270.0
60511.0 431.0 500 658.7268128161888 271.0
60531.0 357.0 0 937.5 271.0
60553.0 272.0 0 897.3817567567568 271.0
60574.0 272.0 0 857.2635135135135 271.0
60596.0 266.0 0 817.1452702702703 271.0
60616.0 286.0 0 777.027027027027 271.0
60638.0 279.0 0 736.9087837837837 272.0
60659.0 297.0 0 696.7905405405405 272.0
60681.0 314.0 0 656.6722972972973 272.0
60701.0 352.0 0 616.554054054054 272.0
60723.0 387.0 0 576.4358108108108 272.0
60744.0 372.0 0 536.3175675675675 272.0
60766.0 346.0 0 496.19932432432427 273.0
60786.0 319.0 0 456.0810810810811 273.0
60808.0 286.0 0 415.9628378378378 273.0
60829.0 292.0 0 375.8445945945946 273.0
60851.0 318.0 0 335.72635135135135 273.0
60871.0 326.0 0 295.608108108108 273.0
60893.0 326.0 0 255.4898648648649 274.0
60934.0 237.0 0 215.37162162162156 274.0
60955.0 314.0 500 175.25337837837833 274.0
60977.0 333.0 0 135.13513513513513 274.0
60997.0 360.0 0 134.58130261408948 274.0
61019.0 356.0 0 134.02747009304386 274.0
61040.0 366.0 0 133.4736375719982 274.0
61062.0 339.0 0 132.9198050509526 274.0
61082.0 335.0 0 132.36597252990694 274.0
61104.0 338.0 0 131.81214000886132 274.0
61125.0 493.0 0 131.25830748781567 274.0
61147.0 344.0 0 130.70447496677005 275.0
61167.0 341.0 0 130.1506424457244 275.0
61189.0 343.0 0 129.59680992467878 275.0
61210.0 361.0 0 129.04297740363313 275.0
61232.0 348.0 0 128.4891448825875 275.0
61252.0 362.0 0 127.93531236154186 275.0
61274.0 390.0 0 127.38147984049623 275.0
61295.0 382.0 0 126.82764731945059 275.0
61317.0 415.0 0 126.27381479840496 275.0
61337.0 429.0 0 125.71998227735932 275.0
61359.0 405.0 0 125.16614975631369 275.0
61380.0 405.0 0 124.61231723526805 276.0
61421.0 304.0 0 124.05848471422242 276.0
61443.0 388.0 500 123.50465219317678 276.0
61464.0 387.0 0 122.95081967213115 276.0
61484.0 400.0 0 122.75048817622424 276.0
61506.0 374.0 0 122.55015668031733 276.0
61528.0 385.0 0 122.3498251844104 276.0
61548.0 381.0 0 122.1494936885035 276.0
61569.0 404.0 0 121.94916219259659 276.0
61591.0 396.0 0 121.74883069668968 276.0
61612.0 387.0 0 121.54849920078277 276.0
61633.0 390.0 0 121.34816770487586 276.0
61654.0 387.0 0 121.14783620896894 276.0
61676.0 363.0 0 120.94750471306203 276.0
61697.0 387.0 0 120.74717321715512 276.0
61718.0 388.0 0 120.54684172124821 276.0
61739.0 549.0 0 120.3465102253413 276.0
61761.0 359.0 0 120.1461787294344 276.0
61782.0 376.0 0 119.94584723352747 276.0
61803.0 390.0 0 119.74551573762056 276.0
61824.0 379.0 0 119.54518424171366 276.0
61846.0 394.0 0 119.34485274580675 276.0
61867.0 393.0 0 119.14452124989984 276.0
61888.0 393.0 0 118.94418975399293 277.0
61930.0 392.0 0 118.74385825808601 277.0
61950.0 438.0 500 118.5435267621791 277.0
61972.0 409.0 0 118.34319526627219 277.0
61993.0 418.0 0 125.90191087617016 277.0
62015.0 381.0 0 133.46062648606815 277.0
62035.0 368.0 0 141.01934209596612 277.0
62057.0 368.0 0 148.5780577058641 277.0
62078.0 371.0 0 156.13677331576207 277.0
62100.0 355.0 0 163.69548892566004 277.0
62120.0 344.0 0 171.25420453555802 277.0
62142.0 356.0 0 178.812920145456 277.0
62163.0 356.0 0 186.37163575535396 277.0
62184.0 355.0 0 193.93035136525194 277.0
62205.0 348.0 0 201.4890669751499 277.0
62227.0 395.0 500 209.04778258504788 277.0
62248.0 365.0 0 216.60649819494586 277.0
62269.0 358.0 0 259.24557264276984 277.0
62290.0 339.0 0 301.88464709059383 277.0
62312.0 355.0 0 344.5237215384178 277.0
62333.0 342.0 0 387.1627959862418 277.0
62354.0 497.0 500 429.8018704340658 277.0
62375.0 336.0 0 472.4409448818898 277.0
62397.0 336.0 0 497.1878515185602 278.0
62438.0 258.0 0 521.9347581552306 278.0
62459.0 337.0 500 546.6816647919011 278.0
62481.0 353.0 0 571.4285714285714 279.0
62501.0 362.0 0 551.0432190760059 279.0
62523.0 376.0 0 530.6578667234405 279.0
62544.0 400.0 0 510.27251437087506 280.0
62566.0 398.0 0 489.8871620183096 280.0
62586.0 394.0 0 469.5018096657441 280.0
62608.0 379.0 0 449.11645731317867 280.0
62629.0 349.0 0 428.73110496061315 281.0
62651.0 332.0 0 408.3457526080477 281.0
62671.0 355.0 0 387.9604002554822 281.0
62693.0 357.0 0 367.57504790291676 281.0
62714.0 360.0 0 347.1896955503513 282.0
62735.0 328.0 0 326.80434319778584 282.0
62756.0 346.0 0 306.4189908452204 282.0
62778.0 352.0 0 286.0336384926549 282.0
62799.0 344.0 0 265.64828614008945 283.0
62820.0 359.0 0 245.26293378752393 283.0
62841.0 341.0 0 224.87758143495853 283.0
62863.0 330.0 0 204.492229082393 283.0
62884.0 330.0 0 184.10687672982755 283.0
62925.0 254.0 0 163.72152437726209 283.0
62947.0 366.0 500 143.33617202469662 283.0
62967.0 401.0 0 122.95081967213115 283.0
62989.0 304.0 0 124.31569098885194 282.0
63010.0 332.0 0 125.68056230557274 282.0
63032.0 316.0 0 127.04543362229354 282.0
63052.0 335.0 0 128.41030493901434 282.0
63074.0 333.0 0 129.77517625573512 282.0
63095.0 368.0 0 131.14004757245593 281.0
63117.0 381.0 0 132.50491888917674 281.0
63137.0 387.0 0 133.86979020589752 281.0
63159.0 401.0 0 135.23466152261832 281.0
63180.0 391.0 0 136.59953283933913 280.0
63202.0 389.0 0 137.9644041560599 280.0
63222.0 370.0 0 139.32927547278072 280.0
63244.0 355.0 0 140.6941467895015 280.0
63265.0 350.0 0 142.0590181062223 280.0
63286.0 355.0 0 143.42388942294312 279.0
63307.0 371.0 0 144.7887607396639 279.0
63329.0 320.0 0 146.1536320563847 279.0
63350.0 366.0 500 147.5185033731055 279.0
63371.0 340.0 0 148.8833746898263 279.0
63392.0 340.0 0 163.9363541213411 278.0
63433.0 345.0 0 178.98933355285595 278.0
63455.0 307.0 0 194.04231298437077 278.0
63476.0 291.0 0 209.09529241588558 278.0
63498.0 293.0 0 224.14827184740042 278.0
63518.0 310.0 0 239.20125127891524 278.0
63540.0 255.0 0 254.25423071043008 278.0
63561.0 486.0 500 269.3072101419449 277.0
63583.0 336.0 0 284.3601895734597 277.0
63603.0 316.0 0 277.2288294733077 277.0
63625.0 288.0 0 270.09746937315566 277.0
63646.0 268.0 0 262.96610927300367 277.0
63668.0 297.0 0 255.83474917285164 277.0
63688.0 298.0 0 248.70338907269962 277.0
63710.0 308.0 0 241.57202897254763 277.0
63731.0 414.0 0 234.4406688723956 276.0
63753.0 311.0 0 227.30930877224358 276.0
63773.0 340.0 0 220.17794867209156 276.0
63795.0 377.0 0 213.04658857193954 276.0
63816.0 334.0 0 205.91522847178754 276.0
63838.0 347.0 0 198.78386837163552 276.0
63858.0 269.0 0 191.6525082714835 276.0
63880.0 269.0 0 184.5211481713315 276.0
63921.0 186.0 0 177.38978807117948 276.0
63942.0 208.0 0 170.25842797102746 276.0
63964.0 255.0 0 163.12706787087544 277.0
63984.0 211.0 0 155.9957077707234 277.0
64006.0 243.0 0 148.86434767057142 277.0
64027.0 243.0 0 141.7329875704194 277.0
64049.0 262.0 0 134.60162747026737 278.0
64069.0 222.0 0 127.47026737011538 278.0
64091.0 279.0 500 120.33890726996336 278.0
64112.0 203.0 0 113.20754716981132 278.0
64134.0 295.0 500 754.2781921895568 279.0
64154.0 501.0 0 1395.3488372093022 279.0
64176.0 335.0 0 1253.9283469516026 279.0
64197.0 319.0 0 1112.5078566939032 279.0
64219.0 331.0 0 971.0873664362036 280.0
64239.0 292.0 0 829.6668761785041 280.0
64261.0 287.0 0 688.2463859208045 280.0
64282.0 356.0 500 546.825895663105 280.0
64304.0 314.0 0 405.4054054054054 281.0
64324.0 352.0 0 389.8697968041034 281.0
64346.0 415.0 0 374.33418820280133 281.0
64367.0 389.0 0 358.79857960149934 281.0
64388.0 389.0 0 343.2629710001973 281.0
64430.0 339.0 0 327.72736239889525 281.0
64451.0 360.0 0 312.1917537975932 281.0
64472.0 411.0 0 296.65614519629116 281.0
64493.0 426.0 0 281.1205365949892 281.0
64515.0 431.0 0 265.58492799368713 281.0
64535.0 379.0 0 250.0493193923851 281.0
64556.0 430.0 500 234.51371079108307 281.0
64578.0 421.0 0 218.97810218978103 281.0
64600.0 408.0 0 245.22188241386792 281.0
64620.0 439.0 0 271.46566263795484 281.0
64641.0 393.0 0 297.7094428620417 281.0
64663.0 395.0 0 323.9532230861286 281.0
64684.0 339.0 0 350.1970033102155 281.0
64705.0 470.0 500 376.4407835343024 281.0
64726.0 404.0 0 402.6845637583893 281.0
64748.0 312.0 0 580.9563758389262 281.0
64769.0 359.0 500 759.2281879194632 281.0
64790.0 437.0 0 937.5 281.0
64811.0 445.0 0 879.5955882352941 281.0
64833.0 376.0 0 821.6911764705883 281.0
64854.0 440.0 500 763.7867647058823 281.0
64875.0 444.0 0 705.8823529411765 281.0
64896.0 444.0 0 670.6578489383919 280.0
64937.0 433.0 0 635.4333449356074 279.0
64959.0 431.0 0 600.2088409328228 279.0
64980.0 389.0 0 564.9843369300382 278.0
65002.0 401.0 0 529.7598329272537 278.0
65022.0 400.0 0 494.5353289244691 278.0
65044.0 404.0 0 459.3108249216846 277.0
65065.0 395.0 0 424.08632091890007 277.0
65086.0 377.0 0 388.8618169161155 276.0
65107.0 389.0 0 353.637312913331 276.0
65129.0 403.0 0 318.41280891054646 275.0
65150.0 404.0 0 283.18830490776185 275.0
65171.0 358.0 0 247.9638009049773 275.0
65192.0 403.0 500 212.7392969021928 274.0
65214.0 324.0 0 177.5147928994083 274.0
65235.0 371.0 500 786.4318150543552 273.0
65256.0 401.0 0 1395.3488372093022 273.0
65277.0 482.0 0 1222.9822161422708 273.0
65299.0 337.0 0 1050.6155950752393 272.0
65320.0 378.0 500 878.2489740082079 272.0
65341.0 360.0 0 705.8823529411765 271.0
65362.0 357.0 0 659.9439775910364 271.0
65384.0 357.0 0 614.0056022408963 271.0
65425.0 344.0 0 568.0672268907563 272.0
65446.0 425.0 500 522.1288515406162 273.0
65468.0 450.0 0 476.1904761904762 274.0
65488.0 441.0 0 456.60688517831375 275.0
65510.0 440.0 0 437.02329416615135 276.0
65531.0 426.0 0 417.4397031539889 276.0
65553.0 391.0 0 397.85611214182643 277.0
65573.0 410.0 0 378.272521129664 278.0
65595.0 384.0 0 358.68893011750157 279.0
65616.0 376.0 0 339.1053391053391 280.0
65637.0 382.0 0 319.5217480931767 280.0
65658.0 410.0 0 299.9381570810142 281.0
65680.0 412.0 0 280.3545660688518 282.0
65701.0 397.0 0 260.77097505668934 283.0
65722.0 338.0 0 241.1873840445269 284.0
65743.0 406.0 500 221.60379303236445 284.0
65765.0 388.0 0 202.02020202020202 285.0
