Time	ECG	ECG_Normalized	Heart_Rate	EDA
0.0 564.0 500 0.0 485.0
21.0 563.0 0 0.0 485.0
43.0 563.0 0 0.4110011302531082 486.0
64.0 565.0 0 0.8220022605062164 486.0
-21.0 564.0 0 1.2330033907593247 485.0
0.0 564.0 0 1.6440045210124328 485.0
21.0 563.0 0 2.055005651265541 485.0
43.0 563.0 0 2.4660067815186495 486.0
64.0 565.0 0 2.877007911771757 486.0
1732.0 317.0 0 3.2880090420248655 479.0
1754.0 307.0 0 3.699010172277974 479.0
1776.0 310.0 0 4.110011302531082 479.0
1798.0 330.0 0 4.5210124327841905 478.0
1819.0 341.0 0 4.932013563037299 478.0
1840.0 341.0 0 5.343014693290407 478.0
1861.0 344.0 0 5.754015823543514 478.0
1883.0 335.0 0 6.1650169537966235 478.0
1904.0 353.0 0 6.576018084049731 478.0
1925.0 320.0 0 6.98701921430284 478.0
1946.0 336.0 0 7.398020344555948 478.0
1968.0 317.0 0 7.809021474809056 477.0
1989.0 314.0 0 8.220022605062164 477.0
2010.0 335.0 0 8.631023735315273 477.0
2031.0 319.0 0 9.042024865568381 477.0
2053.0 324.0 0 9.453025995821488 477.0
2074.0 301.0 0 9.864027126074598 477.0
2095.0 303.0 0 10.275028256327705 477.0
2116.0 281.0 0 10.686029386580813 477.0
2138.0 281.0 0 11.097030516833922 477.0
2179.0 557.0 500 11.508031647087028 477.0
2200.0 337.0 0 11.919032777340139 477.0
2222.0 332.0 0 12.330033907593247 477.0
2242.0 317.0 0 12.741035037846354 477.0
2264.0 330.0 0 13.152036168099462 477.0
2285.0 331.0 0 13.563037298352572 477.0
2307.0 367.0 0 13.97403842860568 478.0
2327.0 447.0 0 14.385039558858788 478.0
2349.0 561.0 0 14.796040689111896 478.0
2370.0 562.0 0 15.207041819365003 478.0
2392.0 562.0 0 15.618042949618111 478.0
2413.0 561.0 0 16.02904407987122 478.0
2434.0 562.0 0 16.440045210124328 478.0
2455.0 557.0 0 16.851046340377437 478.0
2477.0 561.0 0 17.262047470630545 479.0
2498.0 562.0 0 17.673048600883654 479.0
2519.0 561.0 0 18.084049731136762 479.0
2540.0 557.0 0 18.49505086138987 479.0
2562.0 561.0 0 18.906051991642975 479.0
2583.0 559.0 0 19.317053121896087 479.0
2604.0 558.0 0 19.728054252149196 479.0
2625.0 558.0 0 20.1390553824023 480.0
2666.0 559.0 0 20.55005651265541 480.0
2688.0 330.0 0 20.96105764290852 481.0
2709.0 308.0 0 21.372058773161626 481.0
2731.0 311.0 0 21.783059903414735 482.0
2751.0 307.0 0 22.194061033667843 482.0
2773.0 310.0 0 22.60506216392095 483.0
2794.0 369.0 0 23.016063294174057 483.0
2816.0 512.0 0 23.42706442442717 484.0
2836.0 564.0 0 23.838065554680277 484.0
2858.0 564.0 0 24.249066684933382 485.0
2879.0 564.0 0 24.660067815186494 485.0
2901.0 563.0 0 25.0710689454396 486.0
2921.0 561.0 0 25.482070075692707 486.0
2943.0 560.0 0 25.89307120594582 487.0
2964.0 560.0 0 26.304072336198924 487.0
2986.0 561.0 0 26.715073466452033 487.0
3006.0 538.0 0 27.126074596705145 488.0
3028.0 523.0 0 27.53707572695825 488.0
3049.0 559.0 0 27.94807685721136 489.0
3071.0 560.0 0 28.359077987464467 489.0
3091.0 560.0 0 28.770079117717575 490.0
3113.0 519.0 0 29.18108024797068 490.0
3134.0 519.0 0 29.592081378223792 491.0
3175.0 546.0 0 30.0030825084769 491.0
3197.0 316.0 0 30.414083638730006 491.0
3218.0 304.0 0 30.825084768983118 491.0
3239.0 313.0 0 31.236085899236222 491.0
3260.0 314.0 0 31.64708702948933 491.0
3282.0 315.0 0 32.05808815974244 491.0
3303.0 315.0 0 32.46908928999555 491.0
3324.0 334.0 0 32.880090420248656 491.0
3345.0 281.0 0 33.29109155050177 491.0
3367.0 191.0 0 33.70209268075487 491.0
3388.0 127.0 0 34.11309381100798 491.0
3409.0 111.0 0 34.52409494126109 491.0
3430.0 122.0 0 34.935096071514195 491.0
3452.0 160.0 0 35.34609720176731 491.0
3473.0 224.0 0 35.75709833202042 491.0
3494.0 275.0 0 36.168099462273524 491.0
3515.0 378.0 0 36.57910059252663 491.0
3537.0 320.0 0 36.99010172277974 491.0
3558.0 261.0 0 37.401102853032846 491.0
3579.0 290.0 0 37.81210398328595 491.0
3600.0 248.0 0 38.22310511353906 491.0
3622.0 202.0 0 38.634106243792175 491.0
3642.0 202.0 0 39.04510737404528 491.0
3684.0 552.0 500 39.45610850429839 491.0
3706.0 334.0 0 39.8671096345515 491.0
3726.0 329.0 0 51.44947337638368 491.0
3748.0 327.0 0 63.031837118215854 491.0
3769.0 328.0 0 74.61420086004804 491.0
3790.0 327.0 0 86.19656460188021 491.0
3811.0 261.0 0 97.77892834371241 490.0
3833.0 247.0 0 109.36129208554458 490.0
3854.0 262.0 0 120.94365582737676 490.0
3875.0 253.0 0 132.52601956920893 490.0
3896.0 211.0 0 144.1083833110411 490.0
3918.0 203.0 0 155.6907470528733 490.0
3939.0 191.0 0 167.27311079470547 490.0
3960.0 190.0 0 178.85547453653766 489.0
3981.0 254.0 500 190.43783827836984 489.0
4003.0 150.0 0 202.02020202020202 489.0
4024.0 177.0 0 246.47516835016836 489.0
4045.0 188.0 0 290.93013468013464 489.0
4066.0 187.0 0 335.38510101010104 489.0
4088.0 181.0 0 379.8400673400673 489.0
4109.0 223.0 500 424.2950336700337 489.0
4130.0 223.0 0 468.75 488.0
4172.0 550.0 500 710.5654761904761 488.0
4192.0 347.0 0 952.3809523809524 488.0
4214.0 332.0 0 872.3909511311086 488.0
4235.0 325.0 0 792.4009498812649 488.0
4257.0 330.0 0 712.4109486314211 487.0
4277.0 327.0 0 632.4209473815773 487.0
4299.0 418.0 500 552.4309461317335 487.0
4320.0 564.0 0 472.4409448818898 487.0
4341.0 563.0 0 462.0994956275627 487.0
4362.0 563.0 0 451.75804637323563 487.0
4384.0 564.0 0 441.41659711890856 486.0
4405.0 565.0 0 431.0751478645815 486.0
4426.0 564.0 0 420.73369861025435 486.0
4447.0 563.0 0 410.3922493559273 486.0
4469.0 556.0 0 400.0508001016002 486.0
4490.0 556.0 0 389.70935084727313 486.0
4511.0 564.0 0 379.36790159294605 485.0
4532.0 557.0 0 369.026452338619 485.0
4554.0 563.0 0 358.6850030842919 485.0
4575.0 564.0 0 348.3435538299648 485.0
4596.0 559.0 0 338.00210457563776 485.0
4617.0 560.0 0 327.6606553213106 485.0
4639.0 560.0 0 317.31920606698355 485.0
4680.0 561.0 0 306.9777568126565 485.0
4701.0 326.0 0 296.6363075583294 485.0
4723.0 307.0 0 286.29485830400233 485.0
4743.0 306.0 0 275.9534090496752 485.0
4765.0 305.0 0 265.6119597953482 485.0
4786.0 308.0 0 255.27051054102108 485.0
4808.0 228.0 0 244.92906128669398 486.0
4828.0 192.0 0 234.5876120323669 486.0
4849.0 203.0 0 224.2461627780398 486.0
4871.0 256.0 0 213.9047135237127 486.0
4891.0 256.0 0 203.56326426938568 486.0
4913.0 199.0 0 193.2218150150586 486.0
4934.0 219.0 0 182.88036576073148 486.0
4956.0 229.0 0 172.5389165064044 486.0
4976.0 256.0 0 162.19746725207733 487.0
4998.0 239.0 0 151.85601799775026 487.0
5019.0 216.0 0 141.51456874342318 487.0
5041.0 241.0 0 131.1731194890961 487.0
5061.0 256.0 0 120.83167023476904 487.0
5083.0 234.0 0 110.4902209804419 487.0
5104.0 250.0 0 100.14877172611483 487.0
5126.0 250.0 0 89.80732247178781 488.0
5167.0 546.0 500 79.46587321746068 488.0
5188.0 339.0 0 69.12442396313364 489.0
5209.0 323.0 0 104.60151802656546 489.0
5230.0 324.0 0 140.07861208999728 489.0
5252.0 313.0 0 175.5557061534291 490.0
5273.0 323.0 0 211.03280021686092 490.0
5294.0 313.0 0 246.50989428029274 490.0
5315.0 294.0 0 281.98698834372453 491.0
5337.0 346.0 500 317.4640824071564 491.0
5358.0 186.0 0 352.94117647058823 491.0
5379.0 236.0 500 890.7563025210084 492.0
5400.0 226.0 0 1428.5714285714287 492.0
5422.0 253.0 0 1334.2738342738344 492.0
5442.0 260.0 0 1239.97623997624 493.0
5464.0 276.0 0 1145.6786456786458 493.0
5485.0 262.0 0 1051.3810513810513 493.0
5507.0 269.0 0 957.0834570834571 494.0
5527.0 264.0 0 862.7858627858628 494.0
5549.0 255.0 0 768.4882684882685 494.0
5570.0 244.0 0 674.1906741906741 495.0
5592.0 254.0 0 579.89307989308 495.0
5612.0 252.0 0 485.59548559548557 495.0
5634.0 252.0 0 391.2978912978913 495.0
5675.0 535.0 500 297.000297000297 495.0
5696.0 341.0 0 202.7027027027027 495.0
5718.0 339.0 0 199.01468052147135 495.0
5739.0 326.0 0 195.32665834023996 494.0
5760.0 339.0 0 191.6386361590086 494.0
5781.0 339.0 0 187.9506139777772 494.0
5803.0 265.0 0 184.26259179654585 494.0
5824.0 278.0 0 180.5745696153145 494.0
5845.0 299.0 0 176.8865474340831 493.0
5866.0 305.0 0 173.19852525285174 493.0
5888.0 299.0 0 169.51050307162035 493.0
5909.0 287.0 0 165.822480890389 493.0
5930.0 306.0 0 162.13445870915763 492.0
5951.0 296.0 0 158.44643652792624 492.0
5973.0 286.0 0 154.75841434669488 492.0
5993.0 286.0 0 151.0703921654635 492.0
6015.0 282.0 0 147.38236998423213 492.0
6036.0 285.0 0 143.69434780300077 491.0
6058.0 294.0 0 140.00632562176938 491.0
6078.0 290.0 0 136.318303440538 491.0
6100.0 303.0 0 132.63028125930663 491.0
6121.0 336.0 0 128.94225907807527 491.0
6143.0 336.0 0 125.25423689684389 491.0
6184.0 557.0 500 121.56621471561252 491.0
6205.0 340.0 0 117.87819253438114 491.0
6226.0 338.0 0 118.12024221104312 491.0
6247.0 337.0 0 118.36229188770508 491.0
6269.0 324.0 0 118.60434156436706 491.0
6290.0 333.0 0 118.84639124102904 491.0
6311.0 321.0 0 119.088440917691 491.0
6332.0 305.0 0 119.33049059435298 491.0
6354.0 308.0 0 119.57254027101496 491.0
6374.0 354.0 0 119.81458994767692 491.0
6396.0 369.0 0 120.0566396243389 491.0
6417.0 375.0 0 120.29868930100088 491.0
6439.0 373.0 0 120.54073897766284 491.0
6459.0 322.0 0 120.78278865432482 491.0
6481.0 302.0 0 121.0248383309868 491.0
6502.0 307.0 0 121.26688800764877 491.0
6524.0 335.0 0 121.50893768431074 491.0
6544.0 347.0 0 121.75098736097272 491.0
6566.0 337.0 0 121.99303703763469 491.0
6587.0 357.0 0 122.23508671429666 491.0
6609.0 325.0 0 122.47713639095863 491.0
6629.0 325.0 0 122.71918606762061 490.0
6671.0 546.0 500 122.96123574428258 490.0
6692.0 339.0 0 123.20328542094455 490.0
6713.0 338.0 0 128.83306517803436 489.0
6735.0 325.0 0 134.4628449351242 489.0
6755.0 325.0 0 140.092624692214 489.0
6777.0 329.0 0 145.72240444930384 488.0
6798.0 337.0 0 151.35218420639364 488.0
6820.0 318.0 0 156.98196396348345 488.0
6840.0 346.0 0 162.6117437205733 487.0
6862.0 340.0 0 168.2415234776631 487.0
6883.0 350.0 0 173.87130323475293 487.0
6905.0 355.0 0 179.50108299184274 487.0
6925.0 343.0 0 185.13086274893257 486.0
6947.0 325.0 0 190.76064250602238 486.0
6968.0 367.0 500 196.3904222631122 486.0
6990.0 376.0 0 202.02020202020202 485.0
7010.0 405.0 0 198.30088345585898 485.0
7032.0 557.0 0 194.58156489151594 485.0
7053.0 556.0 0 190.86224632717293 484.0
7075.0 562.0 0 187.14292776282988 484.0
7095.0 562.0 0 183.42360919848684 484.0
7117.0 558.0 0 179.70429063414383 484.0
7138.0 558.0 0 175.9849720698008 483.0
7179.0 561.0 0 172.26565350545775 482.0
7201.0 346.0 0 168.5463349411147 482.0
7222.0 324.0 0 164.82701637677167 482.0
7243.0 322.0 0 161.10769781242865 481.0
7264.0 324.0 0 157.3883792480856 481.0
7286.0 313.0 0 153.66906068374257 480.0
7306.0 268.0 0 149.94974211939956 480.0
7328.0 277.0 0 146.23042355505652 479.0
7349.0 245.0 0 142.51110499071348 479.0
7371.0 233.0 0 138.79178642637044 479.0
7391.0 229.0 0 135.0724678620274 478.0
7413.0 215.0 0 131.35314929768435 478.0
7434.0 168.0 0 127.63383073334134 477.0
7456.0 152.0 0 123.9145121689983 477.0
7476.0 142.0 0 120.19519360465527 476.0
7498.0 125.0 0 116.47587504031225 476.0
7519.0 109.0 0 112.7565564759692 476.0
7541.0 93.0 0 109.03723791162616 475.0
7560.0 78.0 0 105.31791934728314 475.0
7581.0 146.0 500 101.5986007829401 474.0
7602.0 157.0 0 97.87928221859707 474.0
7622.0 112.0 0 217.64023089471704 474.0
7644.0 112.0 0 337.40117957083703 473.0
7685.0 511.0 500 457.16212824695697 470.0
7706.0 338.0 0 576.9230769230769 469.0
7728.0 326.0 0 552.7631892305185 468.0
7749.0 335.0 0 528.6033015379602 467.0
7770.0 328.0 0 504.4434138454018 466.0
7791.0 336.0 0 480.28352615284336 465.0
7813.0 323.0 0 456.123638460285 464.0
7834.0 319.0 0 431.96375076772665 463.0
7855.0 304.0 0 407.80386307516824 462.0
7876.0 279.0 0 383.6439753826099 461.0
7898.0 253.0 0 359.4840876900515 460.0
7919.0 279.0 0 335.3241999974931 459.0
7940.0 294.0 0 311.16431230493475 458.0
7961.0 286.0 0 287.00442461237634 457.0
7983.0 303.0 0 262.84453691981804 456.0
8004.0 323.0 0 238.68464922725963 455.0
8025.0 303.0 0 214.52476153470127 453.0
8046.0 351.0 500 190.36487384214286 452.0
8068.0 271.0 0 166.2049861495845 451.0
8088.0 389.0 500 797.3882073605066 450.0
8110.0 554.0 0 1428.5714285714287 449.0
8131.0 554.0 0 1391.9222383551285 448.0
8172.0 560.0 0 1355.2730481388282 448.0
8194.0 350.0 0 1318.6238579225278 447.0
8215.0 335.0 0 1281.9746677062276 447.0
8236.0 321.0 0 1245.3254774899274 446.0
8257.0 321.0 0 1208.6762872736272 446.0
8279.0 334.0 0 1172.027097057327 446.0
8300.0 358.0 0 1135.3779068410267 445.0
8321.0 367.0 0 1098.7287166247263 445.0
8342.0 432.0 0 1062.079526408426 445.0
8364.0 563.0 0 1025.4303361921259 444.0
8385.0 563.0 0 988.7811459758256 444.0
8406.0 563.0 0 952.1319557595253 443.0
8427.0 563.0 0 915.482765543225 443.0
8449.0 563.0 0 878.8335753269248 443.0
8470.0 556.0 0 842.1843851106246 442.0
8491.0 563.0 0 805.5351948943243 442.0
8512.0 563.0 0 768.886004678024 442.0
8534.0 563.0 0 732.2368144617238 441.0
8555.0 563.0 0 695.5876242454235 441.0
8576.0 564.0 0 658.9384340291233 440.0
8597.0 558.0 0 622.289243812823 440.0
8619.0 564.0 0 585.6400535965229 440.0
8640.0 564.0 0 548.9908633802224 440.0
8681.0 562.0 0 512.3416731639223 440.0
8703.0 323.0 0 475.692482947622 440.0
8723.0 315.0 0 439.0432927313218 440.0
8745.0 307.0 0 402.39410251502136 440.0
8766.0 308.0 0 365.7449122987214 440.0
8787.0 317.0 0 329.09572208242093 440.0
8808.0 363.0 0 292.4465318661207 441.0
8830.0 373.0 0 255.7973416498205 441.0
8851.0 360.0 0 219.1481514335203 441.0
8872.0 345.0 0 182.49896121721986 441.0
8893.0 341.0 0 145.84977100091965 441.0
8915.0 458.0 500 109.20058078461943 441.0
8936.0 561.0 0 72.55139056831922 441.0
8957.0 561.0 0 72.35677846915527 441.0
8978.0 556.0 0 72.16216636999133 442.0
9000.0 562.0 0 71.96755427082738 442.0
9021.0 562.0 0 71.77294217166343 442.0
9042.0 562.0 0 71.57833007249948 442.0
9063.0 562.0 0 71.38371797333555 442.0
9085.0 562.0 0 71.1891058741716 442.0
9106.0 562.0 0 70.99449377500765 442.0
9127.0 562.0 0 70.79988167584371 442.0
9169.0 554.0 0 70.60526957667976 442.0
9189.0 328.0 0 70.41065747751581 442.0
9211.0 308.0 0 70.21604537835186 442.0
9232.0 308.0 0 70.02143327918792 442.0
9254.0 309.0 0 69.82682118002397 442.0
9274.0 312.0 0 69.63220908086002 442.0
9296.0 318.0 0 69.43759698169609 442.0
9317.0 315.0 0 69.24298488253214 442.0
9338.0 338.0 0 69.0483727833682 442.0
9359.0 458.0 0 68.85376068420425 442.0
9381.0 561.0 0 68.6591485850403 441.0
9402.0 562.0 0 68.46453648587635 441.0
9423.0 563.0 0 68.2699243867124 441.0
9444.0 562.0 0 68.07531228754846 441.0
9466.0 562.0 0 67.88070018838451 441.0
9487.0 562.0 0 67.68608808922056 441.0
9508.0 563.0 0 67.49147599005661 441.0
9529.0 560.0 0 67.29686389089268 441.0
9551.0 556.0 0 67.10225179172873 441.0
9572.0 560.0 0 66.90763969256479 441.0
9593.0 557.0 0 66.71302759340084 441.0
9614.0 559.0 0 66.51841549423689 441.0
9636.0 559.0 0 66.32380339507294 440.0
9677.0 559.0 0 66.129191295909 440.0
9698.0 325.0 0 65.93457919674505 440.0
9720.0 303.0 0 65.7399670975811 440.0
9740.0 302.0 0 65.54535499841715 440.0
9762.0 303.0 0 65.35074289925322 440.0
9783.0 306.0 0 65.15613080008927 440.0
9805.0 386.0 0 64.96151870092532 440.0
9825.0 222.0 0 64.76690660176138 440.0
9847.0 294.0 500 64.57229450259743 440.0
9868.0 373.0 0 64.37768240343348 440.0
9889.0 473.0 0 64.6033470067805 439.0
9910.0 556.0 0 64.8290116101275 439.0
9932.0 560.0 0 65.05467621347451 439.0
9953.0 559.0 0 65.28034081682151 439.0
9974.0 561.0 0 65.50600542016852 439.0
9995.0 562.0 0 65.73167002351552 439.0
10017.0 558.0 0 65.95733462686253 439.0
10038.0 559.0 0 66.18299923020953 439.0
10059.0 561.0 0 66.40866383355655 439.0
10080.0 561.0 0 66.63432843690354 439.0
10102.0 558.0 0 66.85999304025056 439.0
10123.0 561.0 0 67.08565764359756 439.0
10144.0 561.0 0 67.31132224694457 438.0
10186.0 560.0 0 67.53698685029158 438.0
10206.0 323.0 0 67.76265145363858 438.0
10228.0 304.0 0 67.9883160569856 438.0
10249.0 301.0 0 68.2139806603326 438.0
10271.0 302.0 0 68.43964526367961 438.0
10291.0 305.0 0 68.66530986702661 438.0
10313.0 312.0 0 68.89097447037362 438.0
10334.0 312.0 0 69.11663907372062 438.0
10356.0 312.0 0 69.34230367706763 438.0
10376.0 315.0 0 69.56796828041463 438.0
10398.0 344.0 0 69.79363288376165 438.0
10419.0 366.0 0 70.01929748710864 438.0
10441.0 366.0 0 70.24496209045566 438.0
10461.0 370.0 0 70.47062669380267 438.0
10483.0 364.0 0 70.69629129714967 438.0
10504.0 339.0 0 70.92195590049668 438.0
10525.0 340.0 0 71.14762050384368 438.0
10546.0 342.0 0 71.3732851071907 438.0
10568.0 374.0 0 71.5989497105377 438.0
10589.0 361.0 0 71.82461431388471 438.0
10609.0 352.0 0 72.05027891723171 438.0
10631.0 352.0 0 72.27594352057872 437.0
10672.0 537.0 500 72.50160812392573 437.0
10693.0 335.0 0 72.72727272727273 437.0
10715.0 323.0 0 74.69035619714701 437.0
10736.0 322.0 0 76.65343966702129 437.0
10757.0 322.0 0 78.61652313689557 437.0
10778.0 323.0 0 80.57960660676984 437.0
10800.0 279.0 0 82.54269007664412 436.0
10821.0 285.0 0 84.50577354651841 436.0
10842.0 279.0 0 86.46885701639269 436.0
10863.0 258.0 0 88.43194048626697 436.0
10885.0 251.0 0 90.39502395614124 436.0
10906.0 227.0 0 92.35810742601552 436.0
10927.0 224.0 0 94.3211908958898 436.0
10948.0 200.0 0 96.28427436576408 436.0
10970.0 218.0 0 98.24735783563835 435.0
10991.0 206.0 0 100.21044130551263 435.0
11012.0 188.0 0 102.17352477538691 435.0
11033.0 159.0 0 104.13660824526119 435.0
11055.0 147.0 0 106.09969171513546 435.0
11076.0 154.0 0 108.06277518500974 435.0
11097.0 171.0 0 110.02585865488402 435.0
11118.0 149.0 0 111.9889421247583 435.0
11140.0 149.0 0 113.95202559463257 435.0
11181.0 508.0 500 115.91510906450686 436.0
11202.0 340.0 0 117.87819253438114 437.0
11223.0 327.0 0 118.12024221104312 437.0
11244.0 336.0 0 118.36229188770508 438.0
11266.0 328.0 0 118.60434156436706 438.0
11287.0 329.0 0 118.84639124102904 439.0
11308.0 322.0 0 119.088440917691 439.0
11329.0 317.0 0 119.33049059435298 440.0
11351.0 298.0 0 119.57254027101496 440.0
11372.0 307.0 0 119.81458994767692 441.0
11393.0 338.0 0 120.0566396243389 441.0
11414.0 323.0 0 120.29868930100088 442.0
11436.0 315.0 0 120.54073897766284 443.0
11457.0 285.0 0 120.78278865432482 443.0
11478.0 246.0 0 121.0248383309868 444.0
11499.0 259.0 0 121.26688800764877 444.0
11521.0 271.0 0 121.50893768431074 445.0
11542.0 361.0 0 121.75098736097272 445.0
11563.0 214.0 0 121.99303703763469 446.0
11584.0 245.0 0 122.23508671429666 446.0
11606.0 259.0 0 122.47713639095863 447.0
11627.0 259.0 0 122.71918606762061 448.0
11668.0 538.0 500 122.96123574428258 449.0
11690.0 345.0 0 123.20328542094455 450.0
11710.0 337.0 0 121.90411418756021 451.0
11732.0 330.0 0 120.60494295417587 452.0
11753.0 332.0 0 119.30577172079153 453.0
11775.0 330.0 0 118.00660048740718 454.0
11795.0 363.0 0 116.70742925402286 454.0
11817.0 379.0 0 115.40825802063851 455.0
11838.0 490.0 0 114.10908678725417 456.0
11859.0 556.0 0 112.80991555386983 457.0
11880.0 560.0 0 111.51074432048549 458.0
11902.0 560.0 0 110.21157308710114 459.0
11923.0 558.0 0 108.9124018537168 459.0
11944.0 556.0 0 107.61323062033246 460.0
11965.0 555.0 0 106.31405938694812 461.0
11987.0 555.0 0 105.01488815356379 462.0
12008.0 555.0 0 103.71571692017943 463.0
12029.0 555.0 0 102.4165456867951 464.0
12050.0 555.0 0 101.11737445341076 465.0
12072.0 557.0 0 99.81820322002642 465.0
12093.0 556.0 0 98.51903198664208 466.0
12114.0 557.0 0 97.21986075325773 467.0
12135.0 557.0 0 95.92068951987339 468.0
12176.0 558.0 0 94.62151828648905 468.0
12198.0 329.0 0 93.32234705310472 468.0
12219.0 310.0 0 92.02317581972038 468.0
12241.0 309.0 0 90.72400458633604 468.0
12261.0 313.0 0 89.4248333529517 468.0
12283.0 311.0 0 88.12566211956735 468.0
12304.0 284.0 0 86.82649088618301 468.0
12326.0 256.0 0 85.52731965279867 468.0
12346.0 277.0 0 84.22814841941432 468.0
12368.0 351.0 0 82.92897718602998 468.0
12389.0 275.0 0 81.62980595264565 468.0
12410.0 280.0 0 80.33063471926131 468.0
12431.0 183.0 0 79.03146348587697 468.0
12453.0 292.0 500 77.73229225249263 468.0
12474.0 226.0 0 76.43312101910828 468.0
12495.0 199.0 0 368.4157314730563 468.0
12516.0 239.0 500 660.3983419270044 468.0
12538.0 254.0 0 952.3809523809524 468.0
12559.0 297.0 0 867.0450428692187 468.0
12580.0 315.0 0 781.709133357485 468.0
12601.0 279.0 0 696.3732238457513 468.0
12623.0 286.0 0 611.0373143340177 468.0
12644.0 286.0 0 525.701404822284 468.0
12685.0 547.0 500 440.3654953105503 468.0
12707.0 339.0 0 355.0295857988166 467.0
12727.0 328.0 0 351.41948464469317 467.0
12749.0 330.0 0 347.8093834905698 467.0
12770.0 329.0 0 344.1992823364464 466.0
12792.0 333.0 0 340.589181182323 466.0
12812.0 370.0 0 336.9790800281996 466.0
12834.0 561.0 0 333.3689788740762 466.0
12855.0 557.0 0 329.7588777199528 465.0
12877.0 561.0 0 326.1487765658294 465.0
12897.0 561.0 0 322.538675411706 465.0
12919.0 560.0 0 318.9285742575826 464.0
12940.0 560.0 0 315.3184731034592 464.0
12962.0 560.0 0 311.7083719493358 464.0
12982.0 561.0 0 308.09827079521244 464.0
13004.0 562.0 0 304.48816964108903 463.0
13025.0 554.0 0 300.8780684869656 463.0
13046.0 560.0 0 297.2679673328422 463.0
13067.0 560.0 0 293.65786617871885 462.0
13089.0 557.0 0 290.04776502459544 462.0
13110.0 561.0 0 286.437663870472 462.0
13131.0 561.0 0 282.82756271634867 462.0
13173.0 560.0 0 279.21746156222525 462.0
13193.0 331.0 0 275.60736040810184 462.0
13215.0 311.0 0 271.9972592539784 462.0
13236.0 305.0 0 268.38715809985507 462.0
13258.0 313.0 0 264.77705694573166 462.0
13278.0 315.0 0 261.1669557916083 462.0
13300.0 347.0 0 257.5568546374849 462.0
13321.0 387.0 0 253.94675348336148 462.0
13343.0 417.0 0 250.33665232923806 462.0
13363.0 534.0 0 246.72655117511468 462.0
13385.0 557.0 0 243.1164500209913 463.0
13406.0 562.0 0 239.50634886686788 463.0
13428.0 562.0 0 235.89624771274447 463.0
13448.0 560.0 0 232.28614655862108 463.0
13470.0 562.0 0 228.6760454044977 463.0
13491.0 563.0 0 225.0659442503743 463.0
13513.0 563.0 0 221.4558430962509 463.0
13533.0 562.0 0 217.8457419421275 463.0
13555.0 561.0 0 214.23564078800408 463.0
13576.0 561.0 0 210.62553963388072 463.0
13597.0 562.0 0 207.0154384797573 463.0
13618.0 561.0 0 203.4053373256339 463.0
13640.0 561.0 0 199.7952361715105 463.0
13680.0 555.0 0 196.18513501738713 463.0
13702.0 328.0 0 192.5750338632637 463.0
13723.0 307.0 0 188.96493270914033 462.0
13744.0 307.0 0 185.35483155501691 462.0
13765.0 308.0 0 181.74473040089353 462.0
13787.0 309.0 0 178.13462924677015 462.0
13808.0 407.0 0 174.5245280926467 461.0
13829.0 517.0 0 170.91442693852335 461.0
13850.0 562.0 0 167.30432578439996 461.0
13872.0 564.0 0 163.69422463027652 461.0
13893.0 556.0 0 160.08412347615314 460.0
13914.0 563.0 0 156.47402232202973 460.0
13935.0 556.0 0 152.86392116790634 460.0
13957.0 563.0 0 149.25382001378296 460.0
13978.0 556.0 0 145.64371885965954 459.0
13999.0 565.0 0 142.03361770553616 459.0
14020.0 555.0 0 138.42351655141277 459.0
14042.0 563.0 0 134.81341539728933 458.0
14063.0 562.0 0 131.20331424316598 458.0
14084.0 560.0 0 127.59321308904259 458.0
14105.0 560.0 0 123.98311193491915 458.0
14127.0 560.0 0 120.37301078079577 458.0
14168.0 558.0 0 116.76290962667238 458.0
14189.0 322.0 0 113.15280847254897 458.0
14211.0 298.0 0 109.54270731842558 459.0
14231.0 298.0 0 105.93260616430217 459.0
14253.0 297.0 0 102.32250501017879 459.0
14274.0 306.0 0 98.7124038560554 460.0
14295.0 316.0 0 95.10230270193199 460.0
14316.0 329.0 0 91.49220154780858 460.0
14338.0 304.0 0 87.88210039368522 460.0
14359.0 320.0 0 84.27199923956181 461.0
14380.0 326.0 0 80.6618980854384 461.0
14401.0 338.0 0 77.05179693131504 461.0
14423.0 327.0 0 73.44169577719157 462.0
14444.0 296.0 0 69.83159462306821 462.0
14465.0 308.0 0 66.22149346894486 462.0
14486.0 293.0 0 62.61139231482139 463.0
14508.0 312.0 0 59.00129116069803 463.0
14529.0 329.0 0 55.39119000657462 463.0
14550.0 257.0 0 51.781088852451205 463.0
14571.0 256.0 0 48.17098769832785 464.0
14593.0 278.0 0 44.560886544204436 464.0
14614.0 282.0 0 40.95078539008102 464.0
14635.0 282.0 0 37.34068423595767 465.0
14677.0 553.0 500 33.7305830818342 465.0
14697.0 336.0 0 30.120481927710845 465.0
14719.0 323.0 0 83.73261385309578 465.0
14740.0 322.0 0 137.34474577848073 466.0
14762.0 312.0 0 190.95687770386564 466.0
14782.0 328.0 0 244.5690096292506 466.0
14804.0 320.0 0 298.18114155463553 466.0
14825.0 384.0 500 351.79327348002045 467.0
14846.0 442.0 0 405.4054054054054 467.0
14867.0 430.0 0 437.53187149413566 467.0
14889.0 394.0 0 469.6583375828659 467.0
14910.0 308.0 0 501.78480367159614 467.0
14931.0 358.0 500 533.9112697603264 468.0
14952.0 277.0 0 566.0377358490566 468.0
14974.0 285.0 0 536.054348266501 468.0
14995.0 300.0 0 506.0709606839454 468.0
15016.0 294.0 0 476.0875731013898 468.0
15037.0 321.0 0 446.1041855188342 469.0
15059.0 298.0 0 416.12079793627856 469.0
15080.0 320.0 0 386.137410353723 469.0
15101.0 342.0 0 356.1540227711673 469.0
15122.0 378.0 0 326.17063518861175 469.0
15144.0 378.0 0 296.1872476060561 469.0
15185.0 557.0 500 266.2038600235005 469.0
15206.0 336.0 0 236.2204724409449 469.0
15228.0 331.0 0 250.81056044465032 469.0
15248.0 320.0 0 265.4006484483557 469.0
15270.0 320.0 0 279.9907364520611 469.0
15291.0 338.0 0 294.58082445576656 469.0
15313.0 308.0 0 309.170912459472 468.0
15333.0 272.0 0 323.7610004631774 468.0
15355.0 362.0 500 338.3510884668828 468.0
15376.0 247.0 0 352.94117647058823 468.0
15397.0 255.0 0 360.43606631841925 468.0
15418.0 227.0 0 367.93095616625027 468.0
15440.0 233.0 0 375.4258460140813 468.0
15461.0 281.0 0 382.92073586191236 467.0
15482.0 241.0 0 390.4156257097434 467.0
15503.0 334.0 500 397.9105155575744 467.0
15525.0 301.0 0 405.4054054054054 467.0
15546.0 347.0 500 900.3771213073538 467.0
15567.0 361.0 0 1395.3488372093022 467.0
15588.0 333.0 0 1211.517165005537 467.0
15610.0 369.0 0 1027.6854928017717 467.0
15631.0 369.0 0 843.8538205980066 467.0
15672.0 558.0 500 660.0221483942413 467.0
15694.0 352.0 0 476.1904761904762 467.0
15714.0 337.0 0 465.6896315573209 468.0
15736.0 335.0 0 455.18878692416564 468.0
15757.0 334.0 0 444.68794229101036 468.0
15779.0 333.0 0 434.18709765785513 469.0
15799.0 282.0 0 423.68625302469985 469.0
15821.0 324.0 500 413.18540839154457 469.0
15842.0 292.0 0 402.6845637583893 470.0
15864.0 312.0 0 390.7179941750032 470.0
15884.0 278.0 0 378.7514245916171 470.0
15906.0 276.0 0 366.784855008231 470.0
15927.0 305.0 0 354.8182854248449 471.0
15948.0 416.0 0 342.8517158414588 471.0
15969.0 445.0 0 330.8851462580727 471.0
15991.0 371.0 0 318.9185766746866 472.0
16012.0 343.0 0 306.9520070913005 472.0
16033.0 389.0 500 294.9854375079144 472.0
16054.0 337.0 0 283.0188679245283 473.0
16076.0 298.0 0 303.8762674881273 473.0
16097.0 306.0 0 324.73366705172634 473.0
16118.0 299.0 0 345.5910666153254 473.0
16139.0 299.0 0 366.4484661789244 473.0
16180.0 548.0 500 387.30586574252345 473.0
16202.0 338.0 0 408.16326530612247 473.0
16223.0 336.0 0 394.4975593155449 473.0
16245.0 335.0 0 380.8318533249673 473.0
16265.0 336.0 0 367.16614733438973 473.0
16287.0 337.0 0 353.50044134381216 473.0
16308.0 308.0 0 339.8347353532346 472.0
16330.0 202.0 0 326.16902936265706 472.0
16350.0 204.0 0 312.5033233720794 472.0
16372.0 265.0 0 298.8376173815019 472.0
16393.0 167.0 0 285.17191139092427 472.0
16415.0 186.0 0 271.50620540034674 472.0
16435.0 353.0 0 257.8404994097691 472.0
16457.0 305.0 0 244.1747934191916 472.0
16478.0 203.0 0 230.50908742861398 471.0
16499.0 226.0 0 216.84338143803643 471.0
16520.0 310.0 0 203.17767544745882 471.0
16542.0 204.0 0 189.51196945688127 471.0
16563.0 115.0 0 175.8462634663037 471.0
16584.0 254.0 500 162.18055747572612 471.0
16605.0 277.0 0 148.5148514851485 471.0
16627.0 277.0 0 339.97375641178576 471.0
16667.0 537.0 500 531.4326613384229 471.0
16689.0 351.0 0 722.8915662650602 471.0
16710.0 339.0 0 676.6477675407511 471.0
16731.0 338.0 0 630.4039688164422 471.0
16752.0 337.0 0 584.1601700921332 471.0
16774.0 338.0 0 537.9163713678242 471.0
16795.0 360.0 0 491.6725726435152 472.0
16816.0 299.0 0 445.4287739192062 472.0
16837.0 399.0 500 399.1849751948972 472.0
16859.0 296.0 0 352.94117647058823 472.0
16880.0 344.0 500 874.1450068399452 472.0
16901.0 301.0 0 1395.3488372093022 472.0
16922.0 279.0 0 1229.486616937253 472.0
16944.0 304.0 0 1063.624396665204 472.0
16965.0 280.0 0 897.762176393155 473.0
16986.0 342.0 500 731.8999561211057 473.0
17007.0 238.0 0 566.0377358490566 473.0
17029.0 208.0 0 694.8188080263552 473.0
17049.0 301.0 500 823.5998802036538 473.0
17071.0 240.0 0 952.3809523809524 473.0
17092.0 244.0 0 856.3929508811399 473.0
17114.0 250.0 0 760.4049493813274 473.0
17134.0 250.0 0 664.4169478815148 473.0
17176.0 552.0 500 568.4289463817023 473.0
17197.0 339.0 0 472.4409448818898 473.0
17218.0 338.0 0 453.4987371861536 473.0
17240.0 337.0 0 434.55652949041746 473.0
17261.0 337.0 0 415.61432179468136 472.0
17282.0 325.0 0 396.6721140989452 472.0
17303.0 328.0 0 377.72990640320904 472.0
17325.0 274.0 0 358.7876987074729 472.0
17346.0 291.0 0 339.8454910117367 472.0
17367.0 276.0 0 320.9032833160006 472.0
17388.0 319.0 500 301.9610756202644 471.0
17410.0 209.0 0 283.0188679245283 471.0
17431.0 184.0 0 276.8407013690033 471.0
17452.0 200.0 0 270.6625348134782 471.0
17473.0 259.0 0 264.4843682579532 471.0
17495.0 326.0 0 258.3062017024281 471.0
17516.0 247.0 0 252.12803514690307 470.0
17537.0 281.0 0 245.94986859137802 470.0
17558.0 293.0 0 239.771702035853 470.0
17580.0 304.0 0 233.59353548032794 470.0
17600.0 338.0 0 227.4153689248029 470.0
17622.0 304.0 0 221.23720236927784 470.0
17643.0 304.0 0 215.0590358137528 470.0
17684.0 533.0 500 208.88086925822773 470.0
17706.0 347.0 0 202.7027027027027 470.0
17727.0 334.0 0 221.4825119236884 470.0
17748.0 328.0 0 240.2623211446741 470.0
17769.0 330.0 0 259.0421303656598 470.0
17791.0 330.0 0 277.8219395866455 470.0
17812.0 321.0 0 296.60174880763117 470.0
17833.0 244.0 0 315.38155802861684 470.0
17854.0 308.0 500 334.16136724960256 470.0
17876.0 318.0 0 352.94117647058823 470.0
17896.0 281.0 0 341.20818138576186 470.0
17918.0 299.0 0 329.4751863009355 470.0
17939.0 303.0 0 317.74219121610906 470.0
17961.0 345.0 0 306.0091961312827 470.0
17981.0 281.0 0 294.2762010464563 470.0
18003.0 309.0 0 282.54320596162995 470.0
18024.0 328.0 0 270.8102108768036 470.0
18046.0 289.0 0 259.0772157919772 470.0
18066.0 297.0 0 247.34422070715078 470.0
18088.0 314.0 0 235.6112256223244 470.0
18109.0 347.0 0 223.878230537498 470.0
18131.0 347.0 0 212.14523545267164 470.0
18172.0 544.0 500 200.41224036784524 470.0
18193.0 353.0 0 188.67924528301887 470.0
18214.0 329.0 0 185.61102749769077 470.0
18235.0 331.0 0 182.54280971236267 471.0
18257.0 331.0 0 179.47459192703457 471.0
18278.0 328.0 0 176.40637414170646 471.0
18299.0 331.0 0 173.33815635637833 471.0
18320.0 290.0 0 170.26993857105023 471.0
18342.0 294.0 0 167.20172078572213 472.0
18362.0 304.0 0 164.13350300039403 472.0
18384.0 299.0 0 161.06528521506593 472.0
18405.0 316.0 0 157.99706742973783 472.0
18427.0 298.0 0 154.9288496444097 473.0
18447.0 306.0 0 151.8606318590816 473.0
18469.0 321.0 0 148.7924140737535 473.0
18490.0 315.0 0 145.7241962884254 473.0
18512.0 329.0 0 142.6559785030973 473.0
18532.0 343.0 0 139.58776071776919 474.0
18554.0 271.0 0 136.51954293244108 474.0
18575.0 283.0 0 133.45132514711298 474.0
18597.0 284.0 0 130.38310736178488 474.0
18617.0 301.0 0 127.31488957645676 474.0
18639.0 301.0 0 124.24667179112866 474.0
18680.0 539.0 500 121.17845400580055 474.0
18701.0 343.0 0 118.11023622047244 474.0
18723.0 339.0 0 120.25177662191705 474.0
18744.0 330.0 0 122.39331702336165 473.0
18765.0 330.0 0 124.53485742480623 473.0
18786.0 329.0 0 126.67639782625083 473.0
18808.0 326.0 0 128.81793822769544 473.0
18828.0 321.0 0 130.95947862914002 472.0
18850.0 303.0 0 133.10101903058464 472.0
18871.0 316.0 0 135.24255943202922 472.0
18893.0 335.0 0 137.38409983347384 472.0
18913.0 307.0 0 139.52564023491843 472.0
18935.0 307.0 0 141.667180636363 471.0
18956.0 306.0 0 143.80872103780763 471.0
18978.0 322.0 0 145.95026143925222 471.0
18998.0 299.0 0 148.0918018406968 471.0
19020.0 266.0 0 150.23334224214142 471.0
19041.0 213.0 0 152.374882643586 470.0
19063.0 264.0 500 154.5164230450306 470.0
19083.0 284.0 0 156.6579634464752 470.0
19105.0 290.0 0 261.72424181562565 470.0
19126.0 290.0 0 366.790520184776 470.0
19167.0 546.0 500 471.85679855392647 470.0
19189.0 351.0 0 576.9230769230769 470.0
19210.0 341.0 0 558.8942307692307 471.0
19231.0 334.0 0 540.8653846153846 471.0
19252.0 338.0 0 522.8365384615385 471.0
19274.0 335.0 0 504.8076923076923 472.0
19295.0 429.0 500 486.77884615384613 472.0
19316.0 560.0 0 468.75 472.0
19337.0 562.0 0 453.50479287915095 472.0
19359.0 562.0 0 438.25958575830197 473.0
19379.0 562.0 0 423.0143786374529 473.0
19401.0 562.0 0 407.7691715166039 473.0
19422.0 555.0 0 392.5239643957549 474.0
19444.0 562.0 0 377.27875727490584 474.0
19464.0 562.0 0 362.0335501540568 474.0
19486.0 561.0 0 346.7883430332078 475.0
19507.0 562.0 0 331.54313591235876 475.0
19529.0 555.0 0 316.2979287915098 475.0
19549.0 560.0 0 301.05272167066073 475.0
19571.0 554.0 0 285.8075145498117 476.0
19592.0 561.0 0 270.5623074289627 476.0
19614.0 562.0 0 255.31710030811362 476.0
19634.0 562.0 0 240.0718931872646 476.0
19676.0 561.0 0 224.8266860664156 474.0
19696.0 335.0 0 209.58147894556657 473.0
19718.0 314.0 0 194.33627182471753 472.0
19739.0 314.0 0 179.09106470386854 471.0
19761.0 315.0 0 163.8458575830195 469.0
19781.0 309.0 0 148.6006504621705 468.0
19803.0 464.0 500 133.3554433413214 467.0
19824.0 374.0 0 118.11023622047244 466.0
19846.0 328.0 0 207.6957361461893 465.0
19866.0 283.0 0 297.28123607190616 464.0
19888.0 275.0 0 386.866735997623 463.0
19909.0 358.0 500 476.4522359233398 462.0
19931.0 276.0 0 566.0377358490566 461.0
19951.0 238.0 0 539.400665926748 460.0
19973.0 274.0 0 512.7635960044395 458.0
19994.0 309.0 0 486.12652608213097 457.0
20015.0 393.0 0 459.48945615982245 456.0
20036.0 325.0 0 432.8523862375139 455.0
20058.0 316.0 0 406.2153163152053 454.0
20079.0 357.0 500 379.57824639289674 453.0
20100.0 419.0 0 352.94117647058823 452.0
20121.0 396.0 0 407.56302521008405 451.0
20143.0 396.0 0 462.1848739495798 451.0
20184.0 539.0 500 516.8067226890756 452.0
20205.0 341.0 0 571.4285714285714 453.0
20227.0 327.0 0 554.3154761904761 454.0
20247.0 321.0 0 537.202380952381 454.0
20269.0 327.0 0 520.0892857142858 455.0
20290.0 327.0 0 502.9761904761905 456.0
20312.0 370.0 500 485.86309523809524 456.0
20332.0 400.0 0 468.75 457.0
20354.0 481.0 0 458.50523467305476 458.0
20375.0 563.0 0 448.26046934610946 459.0
20397.0 556.0 0 438.0157040191642 459.0
20417.0 555.0 0 427.770938692219 460.0
20439.0 563.0 0 417.52617336527373 461.0
20460.0 554.0 0 407.28140803832844 461.0
20482.0 560.0 0 397.0366427113832 462.0
20502.0 562.0 0 386.79187738443795 463.0
20524.0 560.0 0 376.54711205749265 463.0
20545.0 560.0 0 366.3023467305474 464.0
20566.0 559.0 0 356.05758140360217 465.0
20587.0 562.0 0 345.8128160766569 465.0
20609.0 560.0 0 335.5680507497117 466.0
20630.0 560.0 0 325.3232854227664 466.0
20671.0 558.0 0 315.0785200958211 464.0
20693.0 327.0 0 304.8337547688759 463.0
20713.0 305.0 0 294.5889894419306 462.0
20735.0 304.0 0 284.3442241149853 461.0
20756.0 319.0 0 274.0994587880401 460.0
20778.0 308.0 0 263.8546934610948 459.0
20798.0 268.0 0 253.6099281341496 458.0
20820.0 280.0 0 243.36516280720434 457.0
20841.0 287.0 0 233.12039748025907 456.0
20863.0 300.0 0 222.8756321533138 455.0
20883.0 280.0 0 212.63086682636856 454.0
20905.0 288.0 0 202.38610149942332 453.0
20926.0 290.0 0 192.14133617247808 452.0
20948.0 263.0 0 181.89657084553278 451.0
20968.0 272.0 0 171.65180551858754 450.0
20990.0 336.0 0 161.40704019164224 449.0
21011.0 216.0 0 151.16227486469705 448.0
21033.0 218.0 0 140.91750953775176 447.0
21053.0 245.0 0 130.6727442108065 446.0
21075.0 276.0 0 120.42797888386121 445.0
21096.0 284.0 0 110.18321355691597 444.0
21117.0 288.0 0 99.93844822997067 443.0
21138.0 288.0 0 89.69368290302549 442.0
21179.0 519.0 500 79.44891757608019 440.0
21201.0 337.0 0 69.20415224913495 440.0
21222.0 332.0 0 83.04498269896195 439.0
21244.0 331.0 0 96.88581314878893 438.0
21264.0 316.0 0 110.72664359861591 437.0
21286.0 330.0 0 124.5674740484429 436.0
21307.0 255.0 0 138.4083044982699 436.0
21329.0 227.0 0 152.24913494809687 435.0
21349.0 230.0 0 166.0899653979239 434.0
21371.0 237.0 0 179.93079584775086 433.0
21392.0 249.0 0 193.77162629757785 432.0
21414.0 154.0 0 207.61245674740485 432.0
21434.0 204.0 500 221.45328719723182 431.0
21456.0 226.0 0 235.2941176470588 430.0
21477.0 226.0 0 237.5157788437263 429.0
21499.0 247.0 0 239.73744004039384 428.0
21519.0 236.0 0 241.95910123706136 428.0
21541.0 225.0 0 244.18076243372886 427.0
21562.0 238.0 0 246.40242363039636 426.0
21584.0 236.0 0 248.62408482706388 425.0
21604.0 255.0 0 250.84574602373138 424.0
21626.0 255.0 0 253.0674072203989 424.0
21667.0 536.0 500 255.2890684170664 424.0
21688.0 351.0 0 257.51072961373393 425.0
21710.0 339.0 0 278.6385404411156 425.0
21731.0 335.0 0 299.7663512684972 425.0
21752.0 335.0 0 320.89416209587887 426.0
21773.0 335.0 0 342.0219729232605 426.0
21795.0 246.0 0 363.14978375064214 427.0
21815.0 345.0 500 384.27759457802375 427.0
21837.0 374.0 0 405.4054054054054 427.0
21858.0 419.0 0 396.26458519588294 428.0
21880.0 544.0 0 387.1237649863604 428.0
21900.0 562.0 0 377.98294477683794 428.0
21922.0 562.0 0 368.8421245673154 429.0
21943.0 556.0 0 359.70130435779294 429.0
21965.0 562.0 0 350.5604841482704 430.0
21985.0 562.0 0 341.41966393874793 430.0
22007.0 562.0 0 332.2788437292254 430.0
22028.0 562.0 0 323.1380235197029 431.0
22050.0 561.0 0 313.99720331018045 431.0
22070.0 562.0 0 304.8563831006579 432.0
22092.0 562.0 0 295.71556289113545 432.0
22113.0 557.0 0 286.5747426816129 432.0
22135.0 557.0 0 277.43392247209044 434.0
22176.0 555.0 0 268.2931022625679 439.0
22197.0 339.0 0 259.15228205304544 442.0
22218.0 317.0 0 250.01146184352294 444.0
22239.0 305.0 0 240.87064163400044 447.0
22261.0 318.0 0 231.72982142447793 450.0
22282.0 318.0 0 222.58900121495543 453.0
22303.0 266.0 0 213.44818100543293 455.0
22324.0 282.0 0 204.30736079591043 458.0
22346.0 300.0 0 195.16654058638795 461.0
22366.0 302.0 0 186.02572037686545 463.0
22388.0 275.0 0 176.88490016734295 466.0
22409.0 291.0 0 167.74407995782045 469.0
22431.0 329.0 0 158.60325974829794 472.0
22451.0 319.0 0 149.46243953877544 474.0
22473.0 282.0 0 140.32161932925294 477.0
22494.0 243.0 0 131.1807991197304 480.0
22516.0 238.0 0 122.03997891020794 483.0
22536.0 212.0 0 112.89915870068546 485.0
22558.0 241.0 0 103.75833849116299 488.0
22579.0 106.0 0 94.61751828164046 491.0
22601.0 151.0 500 85.47669807211798 493.0
22621.0 172.0 0 76.33587786259542 496.0
22643.0 172.0 0 294.7930242661205 497.0
22683.0 555.0 500 513.2501706696456 497.0
22705.0 338.0 0 731.7073170731708 497.0
22726.0 331.0 0 690.3395504543281 497.0
22747.0 331.0 0 648.9717838354854 497.0
22768.0 331.0 0 607.6040172166428 497.0
22790.0 331.0 0 566.2362505978001 497.0
22811.0 270.0 0 524.8684839789574 497.0
22832.0 268.0 0 483.5007173601148 497.0
22853.0 264.0 0 442.1329507412721 497.0
22875.0 237.0 0 400.76518412242945 498.0
22896.0 208.0 0 359.3974175035868 498.0
22917.0 191.0 0 318.0296508847441 498.0
22938.0 288.0 500 276.66188426590145 498.0
22960.0 179.0 0 235.2941176470588 498.0
22981.0 157.0 0 469.3627450980392 498.0
23002.0 214.0 500 703.4313725490196 498.0
23023.0 190.0 0 937.5 498.0
23045.0 210.0 0 854.2899408284023 498.0
23066.0 234.0 0 771.0798816568048 498.0
23087.0 282.0 0 687.8698224852071 498.0
23108.0 268.0 0 604.6597633136096 498.0
23130.0 268.0 0 521.4497041420118 498.0
23171.0 553.0 500 438.23964497041425 498.0
23192.0 336.0 0 355.0295857988166 497.0
23214.0 334.0 0 362.2261314569007 497.0
23234.0 323.0 0 369.4226771149848 497.0
23256.0 330.0 0 376.61922277306894 496.0
23277.0 329.0 0 383.81576843115306 496.0
23298.0 252.0 0 391.0123140892372 496.0
23319.0 363.0 500 398.2088597473213 495.0
23341.0 473.0 0 405.4054054054054 495.0
23362.0 380.0 0 480.5246422893482 495.0
23383.0 337.0 0 555.643879173291 494.0
23404.0 378.0 500 630.7631160572337 494.0
23426.0 304.0 0 705.8823529411765 494.0
23447.0 291.0 0 665.1747655583972 493.0
23468.0 317.0 0 624.4671781756181 493.0
23489.0 353.0 0 583.7595907928389 493.0
23511.0 352.0 0 543.0520034100597 492.0
23532.0 339.0 0 502.3444160272805 492.0
23553.0 344.0 0 461.6368286445013 492.0
23574.0 315.0 0 420.9292412617221 491.0
23596.0 302.0 0 380.2216538789429 491.0
23617.0 268.0 0 339.5140664961637 491.0
23638.0 268.0 0 298.8064791133845 490.0
23680.0 548.0 500 258.0988917306053 490.0
23700.0 346.0 0 217.3913043478261 490.0
23722.0 323.0 0 213.597210828548 490.0
23743.0 327.0 0 209.8031173092699 489.0
23765.0 331.0 0 206.0090237899918 489.0
23785.0 332.0 0 202.2149302707137 489.0
23807.0 298.0 0 198.42083675143562 489.0
23828.0 267.0 0 194.6267432321575 488.0
23849.0 276.0 0 190.8326497128794 488.0
23870.0 312.0 0 187.03855619360132 488.0
23892.0 280.0 0 183.24446267432322 488.0
23913.0 312.0 0 179.4503691550451 488.0
23934.0 318.0 0 175.65627563576703 487.0
23955.0 320.0 0 171.86218211648892 487.0
23977.0 323.0 0 168.06808859721082 487.0
23998.0 327.0 0 164.27399507793274 487.0
24019.0 324.0 0 160.47990155865463 487.0
24040.0 305.0 0 156.68580803937652 486.0
24062.0 281.0 0 152.89171452009845 486.0
24083.0 226.0 0 149.09762100082034 486.0
24104.0 313.0 500 145.30352748154226 486.0
24125.0 313.0 0 141.50943396226415 486.0
24166.0 549.0 500 554.6256847230675 486.0
24188.0 346.0 0 967.741935483871 487.0
24209.0 330.0 0 915.764991404591 487.0
24231.0 330.0 0 863.788047325311 488.0
24251.0 330.0 0 811.8111032460309 488.0
24273.0 324.0 0 759.834159166751 488.0
24294.0 263.0 0 707.857215087471 489.0
24316.0 222.0 0 655.8802710081909 489.0
24336.0 232.0 0 603.9033269289109 490.0
24358.0 244.0 0 551.926382849631 490.0
24379.0 268.0 0 499.949438770351 491.0
24400.0 290.0 0 447.972494691071 491.0
24421.0 200.0 0 395.9955506117909 491.0
24443.0 188.0 0 344.01860653251083 492.0
24464.0 168.0 0 292.04166245323086 492.0
24485.0 257.0 500 240.06471837395088 493.0
24506.0 107.0 0 188.08777429467085 493.0
24528.0 176.0 500 791.7183057519865 494.0
24549.0 210.0 0 1395.3488372093022 494.0
24570.0 198.0 0 1230.8179085587722 494.0
24591.0 209.0 0 1066.2869799082423 495.0
24613.0 257.0 0 901.7560512577123 495.0
24634.0 257.0 0 737.2251226071824 496.0
24675.0 549.0 500 572.6941939566524 497.0
24697.0 343.0 0 408.16326530612247 497.0
24717.0 332.0 0 395.552264041529 497.0
24739.0 332.0 0 382.9412627769355 498.0
24760.0 331.0 0 370.330261512342 498.0
24782.0 328.0 0 357.71926024774854 499.0
24802.0 329.0 0 345.1082589831551 499.0
24824.0 355.0 0 332.4972577185616 499.0
24845.0 356.0 0 319.88625645396814 500.0
24867.0 441.0 0 307.27525518937466 500.0
24887.0 418.0 0 294.6642539247812 501.0
24909.0 347.0 0 282.0532526601877 501.0
24930.0 322.0 0 269.4422513955942 502.0
24951.0 328.0 0 256.83125013100073 502.0
24972.0 312.0 0 244.22024886640727 502.0
24994.0 293.0 0 231.60924760181376 503.0
25015.0 307.0 0 218.9982463372203 503.0
25036.0 294.0 0 206.38724507262683 504.0
25057.0 276.0 0 193.77624380803334 504.0
25079.0 244.0 0 181.16524254343986 505.0
25100.0 273.0 0 168.55424127884638 505.0
25121.0 234.0 0 155.94324001425292 505.0
25142.0 234.0 0 143.33223874965944 506.0
25183.0 544.0 500 130.72123748506596 506.0
25205.0 343.0 0 118.11023622047244 506.0
25226.0 332.0 0 116.93000516978165 507.0
25248.0 335.0 0 115.74977411909086 507.0
25268.0 330.0 0 114.56954306840007 507.0
25290.0 331.0 0 113.38931201770927 507.0
25311.0 367.0 0 112.20908096701848 508.0
25333.0 474.0 0 111.02884991632769 508.0
25353.0 559.0 0 109.8486188656369 508.0
25375.0 560.0 0 108.66838781494612 509.0
25396.0 560.0 0 107.48815676425532 509.0
25418.0 560.0 0 106.30792571356453 509.0
25438.0 560.0 0 105.12769466287374 509.0
25460.0 557.0 0 103.94746361218294 510.0
25481.0 560.0 0 102.76723256149215 510.0
25502.0 560.0 0 101.58700151080136 510.0
25523.0 559.0 0 100.40677046011056 510.0
25545.0 559.0 0 99.22653940941977 511.0
25566.0 559.0 0 98.04630835872898 511.0
25587.0 559.0 0 96.8660773080382 511.0
25608.0 558.0 0 95.68584625734741 511.0
25630.0 558.0 0 94.50561520665661 512.0
25670.0 557.0 0 93.32538415596582 513.0
25692.0 330.0 0 92.14515310527503 513.0
25713.0 315.0 0 90.96492205458424 514.0
25734.0 314.0 0 89.78469100389344 515.0
25755.0 305.0 0 88.60445995320265 515.0
25777.0 311.0 0 87.42422890251186 516.0
25798.0 329.0 0 86.24399785182106 516.0
25819.0 328.0 0 85.06376680113027 517.0
25840.0 336.0 0 83.88353575043948 518.0
25862.0 289.0 0 82.70330469974868 518.0
25883.0 278.0 0 81.52307364905789 519.0
25904.0 295.0 0 80.3428425983671 519.0
25925.0 340.0 0 79.1626115476763 520.0
25947.0 333.0 0 77.98238049698551 521.0
25967.0 190.0 0 76.80214944629473 521.0
25989.0 234.0 500 75.62191839560394 522.0
26010.0 301.0 0 74.44168734491315 522.0
26032.0 170.0 0 172.76089704574184 523.0
26052.0 204.0 0 271.08010674657055 523.0
26074.0 204.0 0 369.3993164473992 524.0
26095.0 260.0 500 467.71852614822797 525.0
26117.0 292.0 0 566.0377358490566 525.0
26137.0 292.0 0 615.4537286612758 525.0
26179.0 551.0 500 664.8697214734951 525.0
26200.0 336.0 0 714.2857142857143 525.0
26221.0 333.0 0 671.1590296495957 525.0
26243.0 330.0 0 628.0323450134771 525.0
26264.0 330.0 0 584.9056603773586 525.0
26285.0 335.0 0 541.77897574124 525.0
26306.0 334.0 0 498.6522911051213 525.0
26328.0 258.0 0 455.52560646900275 525.0
26349.0 225.0 0 412.3989218328841 525.0
26370.0 214.0 0 369.2722371967655 525.0
26391.0 312.0 500 326.1455525606469 525.0
26413.0 204.0 0 283.0188679245283 525.0
26434.0 221.0 0 277.6157804459691 525.0
26455.0 301.0 0 272.21269296740996 525.0
26476.0 335.0 0 266.80960548885076 525.0
26498.0 322.0 0 261.4065180102916 525.0
26519.0 327.0 0 256.0034305317324 525.0
26540.0 353.0 0 250.60034305317325 525.0
26561.0 429.0 0 245.19725557461408 525.0
26583.0 397.0 0 239.7941680960549 525.0
26603.0 325.0 0 234.39108061749573 525.0
26625.0 325.0 0 228.98799313893653 525.0
26666.0 554.0 500 223.58490566037736 525.0
26687.0 349.0 0 218.1818181818182 525.0
26709.0 334.0 0 214.53453168223967 525.0
26730.0 332.0 0 210.88724518266116 526.0
26751.0 332.0 0 207.23995868308262 526.0
26772.0 325.0 0 203.5926721835041 526.0
26794.0 138.0 0 199.9453856839256 526.0
26815.0 156.0 0 196.29809918434705 526.0
26836.0 170.0 0 192.65081268476854 527.0
26857.0 161.0 0 189.00352618519003 527.0
26879.0 146.0 0 185.3562396856115 527.0
26900.0 178.0 0 181.708953186033 527.0
26921.0 180.0 0 178.06166668645446 527.0
26942.0 205.0 0 174.41438018687595 528.0
26964.0 221.0 0 170.7670936872974 528.0
26984.0 192.0 0 167.1198071877189 528.0
27006.0 226.0 0 163.47252068814038 528.0
27027.0 334.0 0 159.82523418856186 529.0
27049.0 252.0 0 156.17794768898335 529.0
27069.0 316.0 500 152.53066118940484 529.0
27091.0 308.0 0 148.8833746898263 529.0
27112.0 336.0 0 253.17196497963388 529.0
27134.0 336.0 0 357.46055526944144 529.0
27175.0 546.0 500 461.7491455592491 529.0
27196.0 342.0 0 566.0377358490566 528.0
27217.0 330.0 0 542.5453200147983 528.0
27238.0 328.0 0 519.0529041805402 528.0
27260.0 320.0 0 495.5604883462819 527.0
27281.0 332.0 0 472.06807251202366 527.0
27302.0 208.0 0 448.57565667776544 527.0
27323.0 154.0 0 425.0832408435072 526.0
27345.0 191.0 0 401.590825009249 526.0
27366.0 184.0 0 378.0984091749907 526.0
27387.0 202.0 0 354.60599334073254 525.0
27408.0 231.0 0 331.11357750647426 525.0
27430.0 240.0 0 307.62116167221603 525.0
27450.0 219.0 0 284.1287458379578 524.0
27472.0 204.0 0 260.6363300036996 524.0
27493.0 232.0 0 237.14391416944136 524.0
27515.0 155.0 0 213.65149833518313 523.0
27535.0 209.0 500 190.15908250092485 523.0
27557.0 90.0 0 166.66666666666666 523.0
27577.0 118.0 0 206.91609977324262 522.0
27599.0 170.0 0 247.16553287981858 522.0
27619.0 225.0 0 287.4149659863946 522.0
27641.0 225.0 0 327.6643990929705 522.0
27682.0 544.0 500 367.9138321995465 522.0
27703.0 346.0 0 408.16326530612247 522.0
27725.0 330.0 0 394.4675802431781 522.0
27746.0 335.0 0 380.7718951802336 522.0
27767.0 328.0 0 367.07621011728924 522.0
27788.0 331.0 0 353.38052505434484 522.0
27810.0 340.0 0 339.6848399914004 522.0
27830.0 306.0 0 325.989154928456 522.0
27852.0 314.0 0 312.2934698655116 522.0
27873.0 302.0 0 298.59778480256716 522.0
27895.0 288.0 0 284.9020997396227 523.0
27915.0 339.0 500 271.2064146766784 523.0
27937.0 240.0 0 257.51072961373393 523.0
27958.0 304.0 500 826.4297834115181 523.0
27980.0 313.0 0 1395.3488372093022 523.0
28000.0 320.0 0 1271.905654138653 523.0
28022.0 310.0 0 1148.4624710680039 523.0
28043.0 309.0 0 1025.0192879973547 523.0
28065.0 316.0 0 901.5761049267056 523.0
28085.0 344.0 0 778.1329218560564 523.0
28107.0 317.0 0 654.6897387854074 523.0
28128.0 317.0 0 531.2465557147581 523.0
28169.0 558.0 500 407.803372644109 523.0
28191.0 344.0 0 284.3601895734597 522.0
28212.0 336.0 0 292.9328129356008 522.0
28233.0 332.0 0 301.5054362977418 521.0
28254.0 342.0 0 310.0780596598829 521.0
28276.0 343.0 0 318.65068302202394 520.0
28296.0 214.0 0 327.223306384165 520.0
28318.0 201.0 0 335.7959297463061 519.0
28339.0 243.0 500 344.36855310844714 519.0
28361.0 206.0 0 352.94117647058823 518.0
28381.0 209.0 0 341.2111747353809 518.0
28403.0 223.0 0 329.4811730001735 517.0
28424.0 248.0 0 317.75117126496616 517.0
28446.0 231.0 0 306.0211695297588 516.0
28466.0 234.0 0 294.2911677945514 516.0
28488.0 252.0 0 282.5611660593441 516.0
28509.0 228.0 0 270.83116432413675 515.0
28531.0 231.0 0 259.10116258892936 515.0
28551.0 247.0 0 247.37116085372202 514.0
28573.0 230.0 0 235.64115911851468 514.0
28594.0 211.0 0 223.9111573833073 513.0
28616.0 193.0 0 212.18115564809995 513.0
28636.0 193.0 0 200.45115391289258 512.0
28678.0 555.0 500 188.72115217768524 512.0
28698.0 354.0 0 176.99115044247787 511.0
28720.0 329.0 0 176.38382786743014 511.0
28741.0 338.0 0 175.77650529238244 511.0
28762.0 337.0 0 175.1691827173347 510.0
28783.0 339.0 0 174.561860142287 510.0
28805.0 373.0 0 173.95453756723927 510.0
28826.0 376.0 0 173.34721499219157 509.0
28847.0 383.0 0 172.73989241714384 509.0
28868.0 326.0 0 172.13256984209613 509.0
28890.0 319.0 0 171.5252472670484 508.0
28911.0 335.0 0 170.9179246920007 508.0
28932.0 341.0 0 170.31060211695296 508.0
28953.0 292.0 0 169.70327954190526 507.0
28975.0 258.0 0 169.09595696685753 507.0
28996.0 285.0 0 168.48863439180982 507.0
29017.0 284.0 0 167.8813118167621 506.0
29038.0 390.0 500 167.2739892417144 506.0
29060.0 209.0 0 166.66666666666666 506.0
29081.0 248.0 0 206.45645645645646 505.0
29102.0 260.0 0 246.24624624624624 505.0
29123.0 274.0 0 286.036036036036 505.0
29145.0 274.0 0 325.82582582582586 504.0
29186.0 530.0 500 365.61561561561564 504.0
29207.0 353.0 0 405.4054054054054 503.0
29228.0 329.0 0 397.7364298972339 503.0
29249.0 338.0 0 390.06745438906245 503.0
29271.0 328.0 0 382.39847888089093 502.0
29292.0 339.0 0 374.7295033727195 502.0
29313.0 367.0 0 367.06052786454796 502.0
29334.0 367.0 0 359.3915523563765 502.0
29356.0 338.0 0 351.722576848205 501.0
29377.0 315.0 0 344.05360134003354 501.0
29398.0 324.0 0 336.384625831862 501.0
29419.0 542.0 0 328.7156503236905 500.0
29441.0 563.0 0 321.04667481551905 500.0
29462.0 563.0 0 313.37769930734754 500.0
29483.0 556.0 0 305.7087237991761 499.0
29504.0 563.0 0 298.03974829100457 499.0
29526.0 557.0 0 290.3707727828331 499.0
29547.0 564.0 0 282.7017972746616 499.0
29568.0 558.0 0 275.0328217664901 498.0
29589.0 564.0 0 267.36384625831863 498.0
29611.0 564.0 0 259.6948707501472 498.0
29632.0 564.0 0 252.02589524197566 497.0
29673.0 562.0 0 244.35691973380418 497.0
29695.0 341.0 0 236.6879442256327 497.0
29715.0 308.0 0 229.0189687174612 497.0
29737.0 312.0 0 221.3499932092897 496.0
29758.0 320.0 0 213.6810177011182 496.0
29780.0 313.0 0 206.01204219294675 496.0
29800.0 222.0 0 198.34306668477524 496.0
29822.0 165.0 0 190.67409117660375 496.0
29843.0 175.0 0 183.00511566843224 495.0
29864.0 202.0 0 175.33614016026078 495.0
29885.0 237.0 0 167.6671646520893 495.0
29907.0 197.0 0 159.99818914391778 495.0
29928.0 219.0 0 152.32921363574633 494.0
29949.0 234.0 0 144.66023812757481 494.0
29970.0 240.0 0 136.9912626194033 494.0
29992.0 214.0 0 129.32228711123184 494.0
30013.0 235.0 0 121.65331160306039 494.0
30034.0 233.0 0 113.98433609488887 493.0
30055.0 259.0 0 106.31536058671736 493.0
30077.0 252.0 0 98.6463850785459 493.0
30098.0 217.0 0 90.97740957037439 493.0
30119.0 212.0 0 83.30843406220293 493.0
30140.0 212.0 0 75.63945855403142 493.0
30181.0 547.0 500 67.97048304585996 493.0
30203.0 338.0 0 60.301507537688444 493.0
30224.0 328.0 0 63.14920354379947 493.0
30246.0 328.0 0 65.99689954991051 493.0
30266.0 328.0 0 68.84459555602155 493.0
30288.0 327.0 0 71.69229156213257 493.0
30309.0 295.0 0 74.5399875682436 493.0
30330.0 298.0 0 77.38768357435464 493.0
30351.0 315.0 0 80.23537958046566 493.0
30373.0 342.0 0 83.0830755865767 493.0
30394.0 286.0 0 85.93077159268773 493.0
30415.0 302.0 0 88.77846759879876 493.0
30436.0 313.0 0 91.62616360490979 493.0
30458.0 312.0 0 94.47385961102083 493.0
30479.0 297.0 0 97.32155561713186 493.0
30500.0 283.0 0 100.1692516232429 493.0
30521.0 311.0 0 103.01694762935392 493.0
30543.0 343.0 0 105.86464363546496 493.0
30563.0 243.0 0 108.712339641576 493.0
30585.0 276.0 0 111.56003564768702 493.0
30606.0 290.0 0 114.40773165379805 493.0
30628.0 290.0 0 117.25542765990909 493.0
30669.0 545.0 500 120.10312366602011 493.0
30690.0 342.0 0 122.95081967213115 493.0
30711.0 329.0 0 181.1991738737576 493.0
30732.0 330.0 0 239.447528075384 493.0
30754.0 330.0 0 297.69588227701047 494.0
30775.0 328.0 0 355.94423647863687 494.0
30796.0 457.0 500 414.1925906802634 494.0
30817.0 559.0 0 472.4409448818898 494.0
30839.0 560.0 0 467.2578864442595 494.0
30860.0 560.0 0 462.0748280066292 494.0
30881.0 560.0 0 456.89176956899894 495.0
30902.0 559.0 0 451.70871113136866 495.0
30924.0 556.0 0 446.5256526937384 495.0
30945.0 559.0 0 441.3425942561081 495.0
30966.0 558.0 0 436.15953581847776 495.0
30987.0 558.0 0 430.9764773808475 495.0
31009.0 556.0 0 425.7934189432172 496.0
31029.0 558.0 0 420.6103605055869 496.0
31051.0 555.0 0 415.42730206795665 496.0
31072.0 560.0 0 410.24424363032637 496.0
31094.0 559.0 0 405.0611851926961 496.0
31114.0 555.0 0 399.8781267550658 496.0
31136.0 555.0 0 394.6950683174355 497.0
31177.0 555.0 0 389.51200987980525 498.0
31198.0 323.0 0 384.3289514421749 498.0
31220.0 302.0 0 379.14589300454463 499.0
31241.0 306.0 0 373.96283456691435 499.0
31262.0 306.0 0 368.7797761292841 500.0
31283.0 310.0 0 363.5967176916538 500.0
31305.0 208.0 0 358.4136592540235 501.0
31326.0 206.0 0 353.23060081639323 501.0
31347.0 216.0 0 348.04754237876296 502.0
31368.0 222.0 0 342.8644839411327 502.0
31390.0 253.0 0 337.6814255035024 503.0
31411.0 238.0 0 332.4983670658721 503.0
31432.0 246.0 0 327.31530862824184 504.0
31453.0 260.0 0 322.13225019061156 504.0
31475.0 268.0 0 316.9491917529813 505.0
31496.0 268.0 0 311.766133315351 505.0
31517.0 276.0 0 306.5830748777207 506.0
31538.0 321.0 0 301.4000164400904 506.0
31560.0 399.0 0 296.2169580024601 507.0
31580.0 559.0 0 291.0338995648299 507.0
31601.0 560.0 0 285.85084112719954 508.0
31623.0 557.0 0 280.66778268956926 508.0
31645.0 557.0 0 275.4847242519389 508.0
31685.0 558.0 0 270.3016658143087 508.0
31707.0 343.0 0 265.1186073766784 508.0
31727.0 327.0 0 259.9355489390481 508.0
31749.0 326.0 0 254.75249050141784 508.0
31770.0 320.0 0 249.56943206378756 508.0
31792.0 327.0 0 244.38637362615725 508.0
31812.0 347.0 0 239.20331518852697 508.0
31834.0 335.0 0 234.02025675089672 508.0
31855.0 281.0 0 228.8371983132664 508.0
31877.0 297.0 0 223.65413987563613 507.0
31897.0 361.0 0 218.47108143800588 507.0
31919.0 368.0 0 213.28802300037557 507.0
31940.0 423.0 0 208.1049645627453 507.0
31962.0 525.0 0 202.92190612511496 507.0
31982.0 558.0 0 197.73884768748474 507.0
32004.0 560.0 0 192.55578924985446 507.0
32025.0 557.0 0 187.37273081222412 507.0
32047.0 561.0 0 182.18967237459384 507.0
32067.0 562.0 0 177.00661393696362 507.0
32089.0 558.0 0 171.82355549933328 507.0
32110.0 557.0 0 166.640497061703 507.0
32131.0 557.0 0 161.45743862407272 507.0
32173.0 560.0 0 156.27438018644244 507.0
32194.0 328.0 0 151.09132174881216 507.0
32215.0 317.0 0 145.90826331118188 508.0
32236.0 318.0 0 140.7252048735516 508.0
32258.0 308.0 0 135.54214643592132 508.0
32278.0 318.0 0 130.359087998291 508.0
32300.0 275.0 0 125.17602956066077 509.0
32321.0 232.0 0 119.99297112303043 509.0
32343.0 270.0 0 114.80991268540015 509.0
32363.0 160.0 0 109.62685424776993 509.0
32385.0 177.0 0 104.44379581013959 510.0
32406.0 168.0 0 99.26073737250931 510.0
32428.0 199.0 0 94.07767893487903 510.0
32448.0 150.0 0 88.89462049724875 510.0
32470.0 90.0 0 83.71156205961847 511.0
32490.0 108.0 0 78.52850362198814 511.0
32512.0 476.0 0 73.34544518435791 511.0
32532.0 138.0 0 68.16238674672763 511.0
32554.0 128.0 0 62.9793283090973 512.0
32575.0 119.0 0 57.796269871467075 512.0
32596.0 127.0 0 52.613211433836796 512.0
32617.0 89.0 0 47.43015299620646 512.0
32638.0 89.0 0 42.24709455857618 513.0
32678.0 554.0 500 37.0640361209459 514.0
32699.0 341.0 0 31.88097768331562 514.0
32721.0 324.0 0 32.16376754852061 514.0
32741.0 322.0 0 32.4465574137256 515.0
32763.0 322.0 0 32.72934727893059 515.0
32784.0 323.0 0 33.01213714413558 516.0
32806.0 390.0 0 33.29492700934057 516.0
32826.0 477.0 0 33.57771687454556 517.0
32848.0 559.0 0 33.86050673975055 517.0
32869.0 557.0 0 34.14329660495553 517.0
32890.0 559.0 0 34.42608647016052 518.0
32911.0 560.0 0 34.70887633536551 518.0
32933.0 559.0 0 34.9916662005705 519.0
32954.0 560.0 0 35.27445606577549 519.0
32975.0 560.0 0 35.55724593098048 519.0
32996.0 559.0 0 35.84003579618547 520.0
33018.0 559.0 0 36.12282566139046 520.0
33039.0 557.0 0 36.40561552659545 521.0
33060.0 560.0 0 36.68840539180044 521.0
33081.0 559.0 0 36.97119525700543 522.0
33103.0 560.0 0 37.253985122210416 522.0
33124.0 560.0 0 37.5367749874154 522.0
33145.0 560.0 0 37.81956485262039 521.0
33187.0 558.0 0 38.10235471782538 519.0
33207.0 320.0 0 38.38514458303037 517.0
33229.0 307.0 0 38.66793444823536 516.0
33250.0 305.0 0 38.95072431344035 515.0
33272.0 309.0 0 39.233514178645336 513.0
33292.0 310.0 0 39.516304043850326 512.0
33314.0 313.0 0 39.799093909055316 510.0
33335.0 348.0 0 40.081883774260305 509.0
33356.0 380.0 0 40.364673639465295 508.0
33377.0 536.0 0 40.647463504670284 506.0
33399.0 556.0 0 40.930253369875274 505.0
33420.0 560.0 0 41.213043235080264 504.0
33441.0 559.0 0 41.49583310028525 502.0
33462.0 559.0 0 41.77862296549024 501.0
33484.0 560.0 0 42.06141283069523 500.0
33505.0 560.0 0 42.34420269590022 498.0
33526.0 560.0 0 42.626992561105205 497.0
33547.0 556.0 0 42.909782426310194 496.0
33569.0 558.0 0 43.192572291515184 494.0
33590.0 559.0 0 43.47536215672017 493.0
33611.0 559.0 0 43.75815202192516 491.0
33632.0 559.0 0 44.04094188713015 491.0
33673.0 556.0 0 44.32373175233514 493.0
33695.0 325.0 0 44.60652161754013 494.0
33716.0 302.0 0 44.88931148274512 495.0
33738.0 301.0 0 45.17210134795011 496.0
33758.0 299.0 0 45.45489121315509 497.0
33780.0 304.0 0 45.73768107836008 498.0
33801.0 330.0 0 46.02047094356507 499.0
33823.0 164.0 0 46.30326080877006 500.0
33843.0 166.0 0 46.58605067397505 501.0
33865.0 329.0 0 46.86884053918004 502.0
33886.0 230.0 0 47.15163040438503 504.0
33907.0 167.0 0 47.43442026959002 505.0
33928.0 224.0 500 47.71721013479501 506.0
33950.0 227.0 0 48.0 507.0
33971.0 354.0 0 65.11095204008589 508.0
33992.0 188.0 0 82.2219040801718 509.0
34013.0 203.0 0 99.3328561202577 510.0
34035.0 224.0 0 116.4438081603436 511.0
34056.0 300.0 0 133.55476020042948 512.0
34077.0 179.0 0 150.6657122405154 513.0
34098.0 203.0 0 167.7766642806013 514.0
34120.0 240.0 0 184.8876163206872 515.0
34141.0 240.0 0 201.9985683607731 516.0
34182.0 537.0 500 219.109520400859 516.0
34203.0 334.0 0 236.2204724409449 516.0
34224.0 320.0 0 231.2740223432983 516.0
34245.0 320.0 0 226.3275722456517 516.0
34267.0 321.0 0 221.38112214800512 516.0
34288.0 331.0 0 216.43467205035853 516.0
34309.0 409.0 0 211.48822195271194 516.0
34330.0 510.0 0 206.54177185506535 516.0
34352.0 560.0 0 201.59532175741876 516.0
34373.0 562.0 0 196.64887165977217 516.0
34394.0 561.0 0 191.70242156212558 517.0
34415.0 556.0 0 186.755971464479 517.0
34437.0 558.0 0 181.8095213668324 517.0
34457.0 558.0 0 176.8630712691858 517.0
34479.0 562.0 0 171.91662117153922 517.0
34500.0 562.0 0 166.97017107389263 517.0
34522.0 561.0 0 162.02372097624604 517.0
34542.0 561.0 0 157.07727087859945 517.0
34564.0 557.0 0 152.13082078095286 517.0
34585.0 561.0 0 147.18437068330627 517.0
34607.0 562.0 0 142.23792058565968 517.0
34627.0 562.0 0 137.2914704880131 517.0
34669.0 556.0 0 132.3450203903665 517.0
34690.0 330.0 0 127.39857029271991 517.0
34711.0 313.0 0 122.45212019507332 517.0
34733.0 305.0 0 117.50567009742673 517.0
34754.0 315.0 0 112.55921999978014 517.0
34775.0 307.0 0 107.61276990213355 517.0
34796.0 352.0 500 102.66631980448696 517.0
34818.0 376.0 0 97.71986970684038 517.0
34839.0 396.0 0 98.16679179696968 517.0
34860.0 427.0 0 98.61371388709897 517.0
34881.0 518.0 0 99.06063597722824 517.0
34903.0 558.0 0 99.50755806735754 517.0
34924.0 563.0 0 99.95448015748683 517.0
34945.0 562.0 0 100.40140224761612 517.0
34966.0 562.0 0 100.84832433774541 517.0
34988.0 556.0 0 101.29524642787469 517.0
35008.0 556.0 0 101.74216851800398 517.0
35030.0 563.0 0 102.18909060813327 517.0
35051.0 563.0 0 102.63601269826256 517.0
35073.0 563.0 0 103.08293478839185 517.0
35093.0 563.0 0 103.52985687852113 517.0
35115.0 563.0 0 103.97677896865042 517.0
35136.0 563.0 0 104.42370105877971 517.0
35177.0 562.0 0 104.870623148909 517.0
35199.0 326.0 0 105.3175452390383 517.0
35220.0 302.0 0 105.76446732916757 517.0
35241.0 307.0 0 106.21138941929686 517.0
35262.0 306.0 0 106.65831150942616 517.0
35284.0 308.0 0 107.10523359955545 517.0
35305.0 302.0 0 107.55215568968474 517.0
35326.0 294.0 0 107.99907777981402 517.0
35347.0 374.0 500 108.44599986994331 517.0
35369.0 243.0 0 108.8929219600726 517.0
35390.0 268.0 0 113.43280385889962 518.0
35411.0 282.0 0 117.97268575772664 518.0
35432.0 264.0 0 122.51256765655366 518.0
35454.0 258.0 0 127.05244955538068 518.0
35474.0 274.0 0 131.59233145420768 518.0
35496.0 277.0 0 136.1322133530347 518.0
35517.0 267.0 0 140.67209525186172 518.0
35539.0 269.0 0 145.21197715068874 518.0
35559.0 278.0 0 149.75185904951576 518.0
35581.0 294.0 0 154.29174094834278 518.0
35602.0 298.0 0 158.8316228471698 518.0
35624.0 293.0 0 163.37150474599682 518.0
35644.0 293.0 0 167.91138664482384 518.0
35686.0 553.0 500 172.45126854365085 517.0
35707.0 338.0 0 176.99115044247787 516.0
35728.0 321.0 0 180.09885458904313 516.0
35750.0 321.0 0 183.20655873560838 515.0
35771.0 320.0 0 186.3142628821736 515.0
35792.0 320.0 0 189.42196702873886 514.0
35813.0 309.0 0 192.52967117530412 514.0
35835.0 306.0 0 195.63737532186937 513.0
35856.0 310.0 0 198.7450794684346 513.0
35877.0 326.0 0 201.85278361499985 512.0
35898.0 280.0 0 204.9604877615651 511.0
35920.0 277.0 0 208.06819190813036 511.0
35940.0 257.0 0 211.1758960546956 510.0
35962.0 316.0 500 214.28360020126084 510.0
35983.0 311.0 0 217.3913043478261 509.0
36005.0 280.0 0 224.8322915951187 509.0
36025.0 279.0 0 232.27327884241134 508.0
36047.0 244.0 0 239.71426608970395 508.0
36068.0 264.0 0 247.1552533369966 507.0
36090.0 316.0 0 254.5962405842892 506.0
36110.0 182.0 0 262.03722783158184 506.0
36132.0 182.0 0 269.4782150788745 505.0
36173.0 556.0 500 276.91920232616707 505.0
36194.0 336.0 0 284.3601895734597 505.0
36216.0 335.0 0 281.81928655862305 505.0
36237.0 335.0 0 279.2783835437864 505.0
36258.0 338.0 0 276.73748052894973 505.0
36279.0 322.0 0 274.1965775141131 505.0
36301.0 291.0 0 271.6556744992764 505.0
36322.0 319.0 0 269.1147714844397 505.0
36343.0 295.0 0 266.57386846960304 505.0
36364.0 274.0 0 264.0329654547664 505.0
36386.0 235.0 0 261.4920624399297 504.0
36407.0 281.0 500 258.95115942509307 504.0
36428.0 260.0 0 256.4102564102564 504.0
36449.0 290.0 0 259.0711175616836 504.0
36471.0 241.0 0 261.7319787131108 504.0
36492.0 233.0 0 264.39283986453796 504.0
36513.0 255.0 0 267.05370101596515 504.0
36534.0 257.0 0 269.7145621673924 504.0
36556.0 268.0 0 272.37542331881957 504.0
36576.0 289.0 0 275.03628447024676 504.0
36598.0 288.0 0 277.69714562167394 504.0
36619.0 357.0 500 280.3580067731011 504.0
36641.0 357.0 0 283.0188679245283 504.0
36682.0 539.0 500 617.6999101527404 504.0
36703.0 351.0 0 952.3809523809524 504.0
36724.0 339.0 0 874.2415885273028 504.0
36745.0 336.0 0 796.1022246736533 504.0
36767.0 337.0 0 717.9628608200037 505.0
36788.0 337.0 0 639.8234969663541 505.0
36809.0 277.0 0 561.6841331127046 505.0
36830.0 402.0 500 483.544769259055 505.0
36852.0 288.0 0 405.4054054054054 505.0
36873.0 286.0 0 390.1777884078769 505.0
36894.0 308.0 0 374.9501714103484 506.0
36915.0 306.0 0 359.72255441281993 506.0
36937.0 311.0 0 344.4949374152914 506.0
36958.0 302.0 0 329.2673204177629 506.0
36979.0 333.0 0 314.0397034202344 506.0
37000.0 335.0 0 298.8120864227059 506.0
37022.0 331.0 0 283.5844694251774 507.0
37042.0 317.0 0 268.3568524276489 507.0
37064.0 319.0 0 253.1292354301204 507.0
37085.0 318.0 0 237.9016184325919 507.0
37107.0 343.0 0 222.67400143506336 507.0
37127.0 343.0 0 207.44638443753487 508.0
37169.0 542.0 500 192.21876744000636 508.0
37189.0 353.0 0 176.99115044247787 508.0
37211.0 338.0 0 175.51179382391726 508.0
37232.0 337.0 0 174.03243720535664 508.0
37254.0 337.0 0 172.55308058679606 508.0
37274.0 324.0 0 171.07372396823544 508.0
37296.0 333.0 0 169.59436734967483 508.0
37317.0 330.0 0 168.1150107311142 508.0
37339.0 334.0 0 166.6356541125536 508.0
37359.0 374.0 0 165.156297493993 508.0
37381.0 384.0 0 163.6769408754324 509.0
37402.0 383.0 0 162.19758425687178 509.0
37424.0 346.0 0 160.71822763831116 509.0
37444.0 367.0 0 159.23887101975055 509.0
37466.0 381.0 0 157.75951440118996 509.0
37487.0 406.0 0 156.28015778262935 509.0
37509.0 406.0 0 154.80080116406873 509.0
37529.0 368.0 0 153.32144454550811 509.0
37551.0 326.0 0 151.84208792694753 509.0
37572.0 367.0 500 150.3627313083869 509.0
37593.0 279.0 0 148.8833746898263 509.0
37614.0 264.0 0 254.5196738745126 509.0
37636.0 264.0 0 360.1559730591989 509.0
37677.0 559.0 500 465.7922722438851 509.0
37698.0 339.0 0 571.4285714285714 508.0
37720.0 337.0 0 544.1949354992834 508.0
37740.0 324.0 0 516.9612995699953 508.0
37762.0 336.0 0 489.72766364070714 508.0
37783.0 337.0 0 462.49402771141905 507.0
37805.0 340.0 0 435.2603917821309 507.0
37825.0 257.0 0 408.0267558528428 507.0
37847.0 283.0 0 380.79311992355474 506.0
37868.0 294.0 0 353.55948399426666 506.0
37890.0 269.0 0 326.3258480649786 506.0
37910.0 252.0 0 299.09221213569043 506.0
37932.0 246.0 0 271.85857620640235 505.0
37953.0 343.0 500 244.6249402771142 505.0
37975.0 240.0 0 217.3913043478261 505.0
37995.0 249.0 0 221.40324687441688 504.0
38017.0 267.0 0 225.41518940100767 504.0
38038.0 301.0 0 229.42713192759845 504.0
38060.0 293.0 0 233.43907445418924 503.0
38080.0 307.0 0 237.45101698078003 503.0
38102.0 327.0 0 241.46295950737078 503.0
38123.0 315.0 0 245.47490203396157 503.0
38144.0 315.0 0 249.48684456055236 503.0
38186.0 539.0 500 253.49878708714314 503.0
38206.0 349.0 0 257.51072961373393 503.0
38228.0 327.0 0 278.6385404411156 503.0
38249.0 332.0 0 299.7663512684972 503.0
38271.0 332.0 0 320.89416209587887 503.0
38291.0 324.0 0 342.0219729232605 503.0
38313.0 311.0 0 363.14978375064214 503.0
38334.0 410.0 500 384.27759457802375 503.0
38356.0 308.0 0 405.4054054054054 503.0
38376.0 319.0 0 395.8600268256206 503.0
38398.0 323.0 0 386.3146482458358 503.0
38419.0 331.0 0 376.769269666051 503.0
38441.0 375.0 0 367.22389108626624 503.0
38461.0 376.0 0 357.6785125064814 503.0
38483.0 408.0 0 348.13313392669664 503.0
38504.0 434.0 0 338.5877553469119 503.0
38525.0 508.0 0 329.04237676712705 503.0
38546.0 557.0 0 319.49699818734223 503.0
38568.0 558.0 0 309.95161960755746 503.0
38589.0 559.0 0 300.4062410277727 503.0
38610.0 556.0 0 290.86086244798787 503.0
38631.0 556.0 0 281.3154838682031 503.0
38672.0 559.0 0 271.7701052884183 503.0
38694.0 342.0 0 262.2247267086335 503.0
38715.0 316.0 0 252.6793481288487 503.0
38737.0 321.0 0 243.1339695490639 503.0
38757.0 323.0 0 233.5885909692791 503.0
38779.0 323.0 0 224.0432123894943 503.0
38800.0 306.0 0 214.4978338097095 503.0
38822.0 324.0 0 204.9524552299247 503.0
38842.0 341.0 0 195.4070766501399 503.0
38864.0 350.0 0 185.86169807035512 503.0
38885.0 339.0 0 176.3163194905703 504.0
38906.0 335.0 0 166.7709409107855 504.0
38927.0 325.0 0 157.22556233100076 504.0
38949.0 343.0 0 147.68018375121596 504.0
38970.0 367.0 0 138.13480517143114 504.0
38991.0 351.0 0 128.58942659164637 504.0
39012.0 311.0 0 119.04404801186155 504.0
39034.0 294.0 0 109.49866943207678 504.0
39055.0 283.0 0 99.95329085229196 504.0
39076.0 375.0 500 90.40791227250719 504.0
39097.0 243.0 0 80.86253369272237 504.0
39119.0 282.0 0 203.50404312668462 504.0
39140.0 282.0 0 326.14555256064693 504.0
39181.0 546.0 500 448.7870619946092 504.0
39203.0 345.0 0 571.4285714285714 503.0
39223.0 332.0 0 547.3222846185454 503.0
39245.0 335.0 0 523.2159978085194 503.0
39266.0 324.0 0 499.10971099849337 502.0
39288.0 331.0 0 475.00342418846736 502.0
39308.0 324.0 0 450.89713737844136 502.0
39330.0 381.0 500 426.7908505684153 501.0
39351.0 432.0 0 402.6845637583893 501.0
39373.0 458.0 0 393.95396960200014 501.0
39393.0 549.0 0 385.22337544561105 500.0
39415.0 557.0 0 376.49278128922197 500.0
39436.0 561.0 0 367.7621871328328 500.0
39457.0 560.0 0 359.0315929764437 499.0
39478.0 561.0 0 350.3009988200546 499.0
39500.0 556.0 0 341.5704046636655 499.0
39521.0 562.0 0 332.83981050727635 498.0
39542.0 555.0 0 324.1092163508872 498.0
39563.0 562.0 0 315.3786221944981 498.0
39585.0 559.0 0 306.64802803810903 497.0
39606.0 559.0 0 297.9174338817199 497.0
39627.0 559.0 0 289.18683972533074 496.0
39669.0 557.0 0 280.45624556894165 496.0
39689.0 329.0 0 271.72565141255257 496.0
39711.0 310.0 0 262.9950572561634 496.0
39732.0 311.0 0 254.2644630997743 496.0
39754.0 306.0 0 245.5338689433852 495.0
39774.0 310.0 0 236.80327478699607 495.0
39796.0 319.0 0 228.07268063060695 495.0
39817.0 413.0 0 219.3420864742178 495.0
39839.0 343.0 0 210.61149231782872 495.0
39859.0 276.0 0 201.8808981614396 495.0
39881.0 297.0 0 193.1503040050505 494.0
39902.0 301.0 0 184.41970984866134 494.0
39924.0 306.0 0 175.68911569227225 494.0
39944.0 336.0 0 166.95852153588314 494.0
39966.0 357.0 0 158.22792737949402 494.0
39987.0 341.0 0 149.4973332231049 494.0
40009.0 342.0 0 140.7667390667158 493.0
40029.0 331.0 0 132.0361449103267 493.0
40051.0 318.0 0 123.30555075393755 493.0
40072.0 345.0 0 114.57495659754841 493.0
40093.0 367.0 0 105.84436244115932 493.0
40114.0 337.0 0 97.11376828477023 493.0
40136.0 337.0 0 88.38317412838109 493.0
40176.0 552.0 500 79.65257997199194 493.0
40198.0 349.0 0 70.92198581560284 494.0
40219.0 329.0 0 137.2266548463357 494.0
40240.0 328.0 0 203.53132387706853 494.0
40261.0 331.0 0 269.8359929078014 495.0
40283.0 319.0 0 336.14066193853427 495.0
40304.0 362.0 500 402.44533096926716 495.0
40325.0 307.0 0 468.75 496.0
40346.0 333.0 0 450.4400185270959 496.0
40368.0 352.0 0 432.13003705419175 496.0
40389.0 317.0 0 413.82005558128765 497.0
40410.0 324.0 0 395.5100741083835 497.0
40431.0 351.0 0 377.2000926354794 497.0
40453.0 397.0 0 358.8901111625753 498.0
40474.0 335.0 0 340.58012968967114 498.0
40495.0 302.0 0 322.270148216767 498.0
40516.0 284.0 0 303.96016674386294 499.0
40538.0 306.0 0 285.6501852709588 499.0
40559.0 415.0 0 267.34020379805463 499.0
40580.0 301.0 0 249.03022232515053 500.0
40601.0 292.0 0 230.72024085224643 500.0
40623.0 301.0 0 212.41025937934228 500.0
40643.0 301.0 0 194.10027790643818 500.0
40685.0 557.0 500 175.79029643353402 500.0
40707.0 347.0 0 157.48031496062993 500.0
40727.0 334.0 0 163.96479851783232 500.0
40749.0 322.0 0 170.44928207503474 500.0
40770.0 333.0 0 176.93376563223714 500.0
40791.0 333.0 0 183.41824918943956 500.0
40812.0 295.0 0 189.90273274664196 500.0
40834.0 299.0 0 196.38721630384435 500.0
40855.0 268.0 0 202.87169986104678 500.0
40876.0 261.0 0 209.35618341824917 500.0
40897.0 249.0 0 215.8406669754516 500.0
40919.0 236.0 0 222.325150532654 500.0
40940.0 345.0 500 228.8096340898564 500.0
40961.0 212.0 0 235.2941176470588 500.0
40982.0 232.0 0 237.5157788437263 500.0
41004.0 246.0 0 239.73744004039384 500.0
41025.0 257.0 0 241.95910123706136 500.0
41046.0 269.0 0 244.18076243372886 500.0
41067.0 286.0 0 246.40242363039636 500.0
41089.0 298.0 0 248.62408482706388 500.0
41110.0 297.0 0 250.84574602373138 500.0
41131.0 297.0 0 253.0674072203989 500.0
41173.0 554.0 500 255.2890684170664 501.0
41193.0 351.0 0 257.51072961373393 501.0
41215.0 335.0 0 253.12830245648848 502.0
41236.0 334.0 0 248.745875299243 503.0
41258.0 327.0 0 244.36344814199757 503.0
41278.0 333.0 0 239.9810209847521 504.0
41300.0 399.0 0 235.59859382750665 504.0
41321.0 525.0 0 231.2161666702612 505.0
41342.0 562.0 0 226.83373951301576 506.0
41363.0 562.0 0 222.45131235577028 506.0
41385.0 563.0 0 218.06888519852484 507.0
41406.0 561.0 0 213.68645804127937 507.0
41427.0 564.0 0 209.30403088403392 508.0
41448.0 561.0 0 204.92160372678848 509.0
41470.0 563.0 0 200.53917656954303 509.0
41491.0 563.0 0 196.15674941229756 510.0
41512.0 563.0 0 191.7743222550521 510.0
41533.0 556.0 0 187.39189509780664 511.0
41555.0 563.0 0 183.0094679405612 512.0
41576.0 562.0 0 178.62704078331575 512.0
41597.0 563.0 0 174.2446136260703 513.0
41618.0 558.0 0 169.86218646882483 513.0
41640.0 558.0 0 165.47975931157936 513.0
41681.0 560.0 0 161.0973321543339 512.0
41702.0 328.0 0 156.71490499708847 511.0
41724.0 313.0 0 152.33247783984302 510.0
41744.0 305.0 0 147.95005068259755 509.0
41766.0 308.0 0 143.5676235253521 509.0
41787.0 313.0 0 139.18519636810663 508.0
41809.0 292.0 0 134.8027692108612 507.0
41829.0 269.0 0 130.42034205361574 507.0
41851.0 274.0 0 126.0379148963703 506.0
41872.0 297.0 0 121.65548773912482 505.0
41893.0 292.0 0 117.27306058187935 504.0
41914.0 290.0 0 112.89063342463393 504.0
41936.0 293.0 0 108.50820626738846 503.0
41957.0 323.0 0 104.12577911014299 502.0
41978.0 245.0 0 99.74335195289754 502.0
41999.0 256.0 0 95.3609247956521 501.0
42021.0 271.0 0 90.97849763840665 500.0
42042.0 304.0 0 86.59607048116118 499.0
42063.0 243.0 0 82.21364332391573 499.0
42084.0 256.0 0 77.83121616667029 498.0
42106.0 274.0 0 73.44878900942481 497.0
42127.0 274.0 0 69.06636185217934 497.0
42168.0 545.0 500 64.68393469493392 498.0
42190.0 345.0 0 60.301507537688444 499.0
42210.0 316.0 0 74.88422504680264 500.0
42232.0 328.0 0 89.46694255591683 500.0
42253.0 324.0 0 104.04966006503103 501.0
42275.0 324.0 0 118.63237757414524 502.0
42295.0 336.0 0 133.21509508325943 503.0
42317.0 373.0 0 147.79781259237362 503.0
42338.0 370.0 0 162.38053010148784 504.0
42360.0 344.0 0 176.96324761060202 505.0
42380.0 321.0 0 191.54596511971621 506.0
42402.0 296.0 0 206.12868262883043 506.0
42423.0 434.0 500 220.71140013794462 507.0
42444.0 308.0 0 235.2941176470588 508.0
42465.0 256.0 0 235.46321151529241 509.0
42487.0 276.0 0 235.63230538352602 509.0
42508.0 276.0 0 235.80139925175962 510.0
42529.0 278.0 0 235.97049311999322 511.0
42550.0 276.0 0 236.13958698822682 512.0
42572.0 292.0 0 236.30868085646046 513.0
42593.0 332.0 0 236.47777472469406 513.0
42614.0 354.0 0 236.64686859292766 514.0
42635.0 354.0 0 236.81596246116126 514.0
42676.0 557.0 500 236.98505632939487 514.0
42698.0 336.0 0 237.15415019762847 513.0
42719.0 334.0 0 251.62752848174844 513.0
42741.0 322.0 0 266.1009067658684 513.0
42761.0 333.0 0 280.57428504998836 513.0
42783.0 326.0 0 295.04766333410834 512.0
42804.0 270.0 0 309.5210416182283 512.0
42826.0 207.0 0 323.9944199023483 512.0
42846.0 258.0 500 338.46779818646826 511.0
42868.0 229.0 0 352.94117647058823 511.0
42889.0 266.0 0 341.2111747353809 511.0
42911.0 306.0 0 329.4811730001735 511.0
42931.0 325.0 0 317.75117126496616 510.0
42953.0 321.0 0 306.0211695297588 510.0
42974.0 328.0 0 294.2911677945514 510.0
42995.0 305.0 0 282.5611660593441 509.0
43016.0 289.0 0 270.83116432413675 509.0
43038.0 322.0 0 259.10116258892936 509.0
43059.0 335.0 0 247.37116085372202 508.0
43080.0 327.0 0 235.64115911851468 508.0
43101.0 274.0 0 223.9111573833073 508.0
43123.0 289.0 0 212.18115564809995 508.0
43144.0 289.0 0 200.45115391289258 507.0
43185.0 539.0 500 188.72115217768524 507.0
43206.0 352.0 0 176.99115044247787 506.0
43227.0 336.0 0 174.54624748695363 506.0
43248.0 337.0 0 172.1013445314294 506.0
43270.0 335.0 0 169.65644157590515 505.0
43291.0 335.0 0 167.2115386203809 505.0
43312.0 298.0 0 164.76663566485666 505.0
43333.0 325.0 0 162.32173270933242 504.0
43355.0 281.0 0 159.87682975380818 504.0
43376.0 267.0 0 157.43192679828394 504.0
43397.0 265.0 0 154.9870238427597 503.0
43418.0 267.0 0 152.54212088723546 503.0
43440.0 278.0 0 150.0972179317112 502.0
43461.0 287.0 0 147.65231497618697 502.0
43482.0 229.0 0 145.20741202066273 502.0
43503.0 216.0 0 142.7625090651385 501.0
43525.0 248.0 0 140.31760610961425 501.0
43545.0 260.0 0 137.87270315409 501.0
43567.0 203.0 0 135.42780019856576 500.0
43588.0 242.0 0 132.98289724304152 500.0
43610.0 263.0 0 130.53799428751728 500.0
43630.0 263.0 0 128.09309133199304 499.0
43672.0 556.0 500 125.6481883764688 497.0
43693.0 352.0 0 123.20328542094455 495.0
43714.0 338.0 0 135.31301005633654 494.0
43736.0 324.0 0 147.42273469172852 493.0
43757.0 336.0 0 159.5324593271205 491.0
43778.0 338.0 0 171.6421839625125 490.0
43799.0 274.0 0 183.7519085979045 489.0
43821.0 260.0 0 195.86163323329646 487.0
43842.0 229.0 0 207.97135786868847 486.0
43863.0 227.0 0 220.08108250408046 485.0
43884.0 193.0 0 232.19080713947244 484.0
43906.0 305.0 500 244.30053177486442 482.0
43927.0 194.0 0 256.4102564102564 481.0
43948.0 186.0 0 253.2909102252168 480.0
43969.0 213.0 0 250.17156404017717 478.0
43991.0 224.0 0 247.05221785513757 477.0
44012.0 209.0 0 243.93287167009794 476.0
44033.0 229.0 0 240.81352548505834 474.0
44054.0 242.0 0 237.69417930001873 473.0
44076.0 250.0 0 234.5748331149791 472.0
44096.0 232.0 0 231.4554869299395 470.0
44118.0 239.0 0 228.33614074489986 469.0
44139.0 239.0 0 225.21679455986026 469.0
44180.0 534.0 500 222.09744837482066 471.0
44202.0 339.0 0 218.97810218978103 471.0
44223.0 338.0 0 245.22188241386792 472.0
44244.0 324.0 0 271.46566263795484 473.0
44265.0 338.0 0 297.7094428620417 474.0
44287.0 337.0 0 323.9532230861286 475.0
44308.0 313.0 0 350.1970033102155 475.0
44329.0 354.0 500 376.4407835343024 476.0
44350.0 365.0 0 402.6845637583893 477.0
44372.0 319.0 0 390.5851214670574 478.0
44393.0 355.0 0 378.4856791757255 479.0
44414.0 375.0 0 366.3862368843936 479.0
44435.0 390.0 0 354.2867945930617 480.0
44457.0 404.0 0 342.18735230172985 481.0
44478.0 408.0 0 330.087910010398 482.0
44499.0 377.0 0 317.9884677190661 483.0
44520.0 371.0 0 305.88902542773417 483.0
44542.0 411.0 500 293.78958313640226 484.0
44563.0 499.0 0 281.6901408450704 485.0
44584.0 556.0 0 279.04819782430155 486.0
44605.0 563.0 0 276.40625480353276 487.0
44627.0 563.0 0 273.7643117827639 488.0
44668.0 562.0 0 271.12236876199506 488.0
44689.0 340.0 0 268.48042574122627 488.0
44711.0 331.0 0 265.8384827204574 488.0
44731.0 317.0 0 263.1965396996886 489.0
44753.0 330.0 0 260.5545966789198 489.0
44774.0 330.0 0 257.91265365815093 489.0
44795.0 334.0 0 255.2707106373821 489.0
44816.0 339.0 0 252.6287676166133 489.0
44838.0 346.0 0 249.98682459584447 490.0
44859.0 350.0 0 247.34488157507565 490.0
44880.0 360.0 0 244.7029385543068 490.0
44901.0 379.0 0 242.06099553353798 490.0
44923.0 417.0 0 239.41905251276916 490.0
44944.0 484.0 0 236.7771094920003 491.0
44965.0 560.0 0 234.13516647123149 491.0
44986.0 561.0 0 231.49322345046266 491.0
45008.0 562.0 0 228.85128042969382 491.0
45029.0 562.0 0 226.209337408925 492.0
45050.0 556.0 0 223.56739438815617 492.0
45071.0 561.0 0 220.92545136738735 492.0
45093.0 556.0 0 218.28350834661853 492.0
45114.0 562.0 0 215.64156532584968 492.0
45135.0 562.0 0 212.99962230508086 492.0
45177.0 554.0 0 210.35767928431204 492.0
45197.0 335.0 0 207.7157362635432 492.0
45219.0 315.0 0 205.0737932427744 492.0
45240.0 315.0 0 202.43185022200555 492.0
45262.0 312.0 0 199.7899072012367 492.0
45282.0 317.0 0 197.1479641804679 492.0
45304.0 326.0 0 194.50602115969906 492.0
45325.0 323.0 0 191.8640781389302 492.0
45346.0 296.0 0 189.22213511816142 492.0
45367.0 290.0 0 186.58019209739257 492.0
45389.0 328.0 0 183.93824907662375 491.0
45410.0 384.0 0 181.29630605585493 491.0
45431.0 252.0 0 178.65436303508608 491.0
45452.0 258.0 0 176.01242001431726 491.0
45474.0 275.0 0 173.37047699354844 491.0
45495.0 321.0 0 170.7285339727796 491.0
45516.0 357.0 0 168.08659095201077 491.0
45537.0 394.0 0 165.44464793124195 491.0
45559.0 479.0 0 162.80270491047312 491.0
45580.0 561.0 0 160.1607618897043 491.0
45601.0 556.0 0 157.51881886893545 491.0
45622.0 560.0 0 154.87687584816663 491.0
45644.0 560.0 0 152.2349328273978 491.0
45685.0 561.0 0 149.59298980662896 491.0
45706.0 341.0 0 146.95104678586014 491.0
45728.0 319.0 0 144.30910376509132 491.0
45748.0 316.0 0 141.66716074432247 491.0
45770.0 311.0 0 139.02521772355365 491.0
45791.0 313.0 0 136.38327470278483 491.0
45813.0 299.0 0 133.741331682016 492.0
45833.0 323.0 0 131.0993886612472 492.0
45855.0 332.0 0 128.45744564047837 492.0
45876.0 364.0 0 125.81550261970952 492.0
45897.0 379.0 0 123.1735595989407 492.0
45918.0 401.0 0 120.53161657817188 492.0
45940.0 483.0 0 117.88967355740303 492.0
45961.0 560.0 0 115.24773053663421 493.0
45982.0 561.0 0 112.60578751586539 493.0
46003.0 560.0 0 109.96384449509654 493.0
46025.0 561.0 0 107.32190147432772 493.0
46046.0 559.0 0 104.6799584535589 493.0
46067.0 560.0 0 102.03801543279005 493.0
46088.0 558.0 0 99.39607241202123 493.0
46110.0 556.0 0 96.7541293912524 493.0
46131.0 556.0 0 94.11218637048356 493.0
46172.0 559.0 0 91.47024334971474 493.0
46193.0 330.0 0 88.82830032894594 493.0
46214.0 309.0 0 86.1863573081771 493.0
46235.0 308.0 0 83.54441428740827 493.0
46257.0 316.0 0 80.90247126663945 493.0
46278.0 314.0 0 78.2605282458706 493.0
46299.0 309.0 0 75.61858522510178 493.0
46320.0 332.0 0 72.97664220433296 493.0
46342.0 312.0 0 70.33469918356411 493.0
46363.0 288.0 0 67.69275616279529 493.0
46384.0 293.0 0 65.05081314202647 493.0
46405.0 313.0 0 62.40887012125762 493.0
46427.0 322.0 0 59.7669271004888 493.0
46447.0 306.0 0 57.12498407971998 493.0
46469.0 298.0 0 54.48304105895113 493.0
46490.0 275.0 0 51.84109803818231 493.0
46512.0 294.0 0 49.19915501741349 493.0
46532.0 314.0 0 46.55721199664467 493.0
46554.0 247.0 0 43.91526897587585 493.0
46575.0 263.0 0 41.273325955107026 493.0
46597.0 230.0 0 38.63138293433818 493.0
46617.0 247.0 0 35.989439913569356 493.0
46639.0 247.0 0 33.347496892800535 493.0
46680.0 546.0 500 30.705553872031686 493.0
46701.0 347.0 0 28.06361085126286 493.0
46723.0 320.0 0 53.42626385064362 493.0
46744.0 328.0 0 78.78891685002438 494.0
46765.0 325.0 0 104.15156984940512 494.0
46786.0 327.0 0 129.5142228487859 494.0
46808.0 300.0 0 154.87687584816663 494.0
46829.0 230.0 0 180.23952884754738 495.0
46850.0 225.0 0 205.60218184692812 495.0
46871.0 224.0 0 230.96483484630892 495.0
46893.0 284.0 500 256.32748784568963 495.0
46914.0 189.0 0 281.6901408450704 495.0
46935.0 177.0 0 505.2537446903644 496.0
46956.0 236.0 500 728.8173485356583 496.0
46978.0 264.0 0 952.3809523809524 496.0
46998.0 248.0 0 878.1564231801199 496.0
47020.0 282.0 0 803.9318939792873 496.0
47041.0 287.0 0 729.7073647784548 497.0
47063.0 246.0 0 655.4828355776224 497.0
47083.0 270.0 0 581.2583063767897 497.0
47105.0 230.0 0 507.0337771759573 497.0
47126.0 230.0 0 432.8092479751248 498.0
47167.0 550.0 500 358.58471877429224 498.0
47189.0 338.0 0 284.3601895734597 498.0
47210.0 332.0 0 301.2636715998782 498.0
47231.0 327.0 0 318.16715362629674 498.0
47252.0 330.0 0 335.0706356527152 498.0
47274.0 331.0 0 351.97411767913377 498.0
47295.0 261.0 0 368.87759970555226 498.0
47316.0 312.0 500 385.78108173197074 498.0
47337.0 341.0 0 402.6845637583893 498.0
47359.0 383.0 0 392.77924256951104 498.0
47380.0 427.0 0 382.8739213806328 499.0
47401.0 535.0 0 372.9686001917546 499.0
47422.0 561.0 0 363.06327900287636 499.0
47444.0 558.0 0 353.1579578139981 499.0
47464.0 558.0 0 343.25263662511986 499.0
47486.0 558.0 0 333.3473154362416 499.0
47507.0 558.0 0 323.44199424736337 499.0
47529.0 555.0 0 313.5366730584852 499.0
47549.0 556.0 0 303.63135186960693 499.0
47571.0 558.0 0 293.7260306807287 499.0
47592.0 562.0 0 283.82070949185044 499.0
47614.0 556.0 0 273.91538830297225 499.0
47634.0 556.0 0 264.010067114094 499.0
47676.0 557.0 0 254.10474592521575 498.0
47697.0 336.0 0 244.1994247363375 498.0
47718.0 317.0 0 234.29410354745926 497.0
47740.0 318.0 0 224.38878235858104 496.0
47761.0 311.0 0 214.4834611697028 496.0
47782.0 328.0 0 204.57813998082457 495.0
47803.0 348.0 0 194.67281879194633 495.0
47825.0 346.0 0 184.76749760306808 494.0
47846.0 328.0 0 174.86217641418986 493.0
47867.0 344.0 0 164.9568552253116 493.0
47888.0 362.0 0 155.05153403643337 492.0
47910.0 345.0 0 145.14621284755515 492.0
47931.0 341.0 0 135.2408916586769 491.0
47952.0 295.0 0 125.33557046979865 490.0
47973.0 319.0 0 115.4302492809204 490.0
47995.0 277.0 0 105.52492809204222 489.0
48016.0 381.0 500 95.61960690316397 489.0
48037.0 267.0 0 85.71428571428571 488.0
48058.0 243.0 0 124.48979591836735 487.0
48080.0 262.0 0 163.26530612244898 487.0
48100.0 273.0 0 202.0408163265306 486.0
48122.0 291.0 0 240.81632653061223 486.0
48143.0 291.0 0 279.5918367346939 485.0
48184.0 551.0 500 318.3673469387755 485.0
48206.0 344.0 0 357.14285714285717 485.0
48227.0 331.0 0 349.5975855130785 485.0
48248.0 334.0 0 342.0523138832998 485.0
48269.0 334.0 0 334.50704225352115 485.0
48291.0 329.0 0 326.96177062374244 485.0
48312.0 314.0 0 319.4164989939638 485.0
48333.0 277.0 0 311.87122736418513 485.0
48354.0 250.0 0 304.3259557344064 485.0
48376.0 239.0 0 296.78068410462777 485.0
48397.0 292.0 500 289.23541247484906 484.0
48418.0 197.0 0 281.6901408450704 484.0
48439.0 243.0 500 855.1307847082496 484.0
48461.0 263.0 0 1428.5714285714287 484.0
48482.0 269.0 0 1311.4653586756592 484.0
48503.0 287.0 0 1194.3592887798898 484.0
48524.0 296.0 0 1077.2532188841203 484.0
48546.0 299.0 0 960.1471489883508 484.0
48567.0 294.0 0 843.0410790925813 484.0
48588.0 308.0 0 725.9350091968118 484.0
48609.0 302.0 0 608.8289393010424 484.0
48631.0 302.0 0 491.72286940527283 484.0
48672.0 556.0 500 374.6167995095034 484.0
48693.0 351.0 0 257.51072961373393 485.0
48715.0 334.0 0 252.87426621674234 485.0
48735.0 332.0 0 248.23780281975075 485.0
48757.0 326.0 0 243.60133942275917 486.0
48778.0 331.0 0 238.96487602576755 486.0
48799.0 353.0 0 234.32841262877596 487.0
48820.0 441.0 0 229.69194923178438 487.0
48842.0 561.0 0 225.0554858347928 487.0
48863.0 561.0 0 220.41902243780117 488.0
48884.0 563.0 0 215.7825590408096 488.0
48905.0 564.0 0 211.146095643818 489.0
48927.0 563.0 0 206.5096322468264 489.0
48948.0 556.0 0 201.87316884983483 489.0
48969.0 564.0 0 197.23670545284324 490.0
48990.0 563.0 0 192.60024205585165 490.0
49012.0 563.0 0 187.96377865886006 490.0
49033.0 562.0 0 183.32731526186845 491.0
49054.0 564.0 0 178.69085186487686 491.0
49075.0 565.0 0 174.05438846788527 492.0
49097.0 563.0 0 169.41792507089366 492.0
49118.0 562.0 0 164.78146167390207 492.0
49139.0 562.0 0 160.14499827691048 493.0
49181.0 555.0 0 155.5085348799189 493.0
49201.0 330.0 0 150.8720714829273 493.0
49222.0 312.0 0 146.23560808593572 493.0
49244.0 310.0 0 141.59914468894414 494.0
49265.0 310.0 0 136.96268129195255 494.0
49286.0 314.0 0 132.32621789496093 494.0
49307.0 315.0 0 127.68975449796935 494.0
49329.0 302.0 0 123.05329110097776 495.0
49349.0 284.0 0 118.41682770398617 495.0
49371.0 284.0 0 113.78036430699458 495.0
49392.0 304.0 0 109.14390091000297 495.0
49414.0 314.0 0 104.50743751301138 495.0
49434.0 264.0 0 99.8709741160198 496.0
49456.0 256.0 0 95.23451071902821 496.0
49477.0 250.0 0 90.59804732203662 496.0
49499.0 267.0 0 85.96158392504503 496.0
49519.0 278.0 0 81.32512052805342 496.0
49541.0 212.0 0 76.68865713106186 497.0
49562.0 253.0 500 72.05219373407024 497.0
49584.0 268.0 0 67.41573033707866 497.0
49604.0 286.0 0 193.41894060995185 497.0
49626.0 286.0 0 319.422150882825 498.0
49667.0 549.0 500 445.4253611556983 497.0
49688.0 339.0 0 571.4285714285714 497.0
49710.0 324.0 0 542.4547283702213 497.0
49731.0 323.0 0 513.4808853118712 496.0
49752.0 323.0 0 484.50704225352115 496.0
49773.0 328.0 0 455.53319919517105 496.0
49795.0 384.0 0 426.55935613682095 496.0
49815.0 388.0 0 397.58551307847085 496.0
49837.0 345.0 0 368.61167002012075 495.0
49858.0 319.0 0 339.6378269617706 495.0
49880.0 428.0 500 310.6639839034205 495.0
49900.0 400.0 0 281.6901408450704 495.0
49922.0 332.0 0 274.32981614960386 495.0
49943.0 336.0 0 266.96949145413726 494.0
49965.0 357.0 0 259.6091667586707 494.0
49985.0 383.0 0 252.24884206320414 494.0
50007.0 384.0 0 244.8885173677376 494.0
50028.0 423.0 0 237.52819267227102 493.0
50050.0 478.0 0 230.16786797680444 493.0
50070.0 560.0 0 222.8075432813379 493.0
50092.0 561.0 0 215.44721858587133 493.0
50113.0 558.0 0 208.08689389040478 493.0
50135.0 558.0 0 200.72656919493818 492.0
50176.0 559.0 0 193.36624449947163 492.0
50197.0 333.0 0 186.00591980400506 492.0
50218.0 327.0 0 178.6455951085385 491.0
50239.0 318.0 0 171.28527041307194 491.0
50261.0 327.0 0 163.9249457176054 491.0
50282.0 315.0 0 156.5646210221388 491.0
50303.0 355.0 500 149.20429632667225 490.0
50324.0 382.0 0 141.84397163120568 490.0
50346.0 437.0 0 140.09375095120689 490.0
50366.0 538.0 0 138.34353027120812 490.0
50388.0 562.0 0 136.59330959120933 489.0
50409.0 556.0 0 134.84308891121054 489.0
50431.0 561.0 0 133.09286823121175 489.0
50451.0 562.0 0 131.342647551213 489.0
50473.0 561.0 0 129.5924268712142 488.0
50494.0 560.0 0 127.84220619121541 488.0
50516.0 561.0 0 126.09198551121663 488.0
50536.0 556.0 0 124.34176483121784 488.0
50558.0 562.0 0 122.59154415121907 487.0
50579.0 556.0 0 120.84132347122028 487.0
50601.0 561.0 0 119.0911027912215 487.0
50621.0 561.0 0 117.34088211122273 487.0
50643.0 561.0 0 115.59066143122394 486.0
50684.0 559.0 0 113.84044075122515 486.0
50705.0 332.0 0 112.09022007122637 486.0
50727.0 301.0 0 110.3399993912276 485.0
50748.0 301.0 0 108.5897787112288 485.0
50769.0 315.0 0 106.83955803123001 485.0
50790.0 315.0 0 105.08933735123124 485.0
50812.0 270.0 0 103.33911667123246 484.0
50833.0 239.0 0 101.58889599123367 484.0
50854.0 238.0 0 99.8386753112349 484.0
50875.0 264.0 0 98.08845463123612 484.0
50897.0 254.0 0 96.33823395123733 483.0
50918.0 251.0 0 94.58801327123854 483.0
50939.0 214.0 0 92.83779259123976 483.0
50960.0 203.0 0 91.08757191124099 482.0
50982.0 200.0 0 89.3373512312422 482.0
51002.0 259.0 500 87.5871305512434 482.0
51024.0 172.0 0 85.83690987124463 482.0
51045.0 183.0 0 124.29300643232634 481.0
51067.0 231.0 0 162.74910299340803 481.0
51087.0 222.0 0 201.20519955448975 481.0
51109.0 254.0 0 239.66129611557142 481.0
51130.0 254.0 0 278.11739267665314 480.0
51171.0 545.0 500 316.57348923773486 480.0
51193.0 346.0 0 355.0295857988166 480.0
51214.0 329.0 0 345.05163011950344 480.0
51235.0 317.0 0 335.0736744401903 480.0
51256.0 328.0 0 325.09571876087716 480.0
51278.0 317.0 0 315.117763081564 480.0
51299.0 262.0 0 305.1398074022508 480.0
51320.0 237.0 0 295.1618517229377 480.0
51341.0 235.0 0 285.18389604362454 480.0
51363.0 237.0 0 275.2059403643114 480.0
51384.0 260.0 0 265.22798468499826 480.0
51405.0 170.0 0 255.25002900568512 480.0
51426.0 226.0 500 245.27207332637198 480.0
51448.0 307.0 0 235.2941176470588 480.0
51469.0 366.0 0 231.95026609522913 480.0
51490.0 367.0 0 228.6064145433994 480.0
51511.0 418.0 0 225.26256299156972 480.0
51533.0 560.0 0 221.91871143974 480.0
51554.0 556.0 0 218.57485988791032 480.0
51575.0 562.0 0 215.2310083360806 480.0
51596.0 557.0 0 211.88715678425092 480.0
51618.0 562.0 0 208.54330523242123 480.0
51638.0 562.0 0 205.19945368059152 480.0
51680.0 559.0 0 201.85560212876183 481.0
51701.0 349.0 0 198.51175057693212 481.0
51722.0 325.0 0 195.16789902510243 482.0
51744.0 325.0 0 191.82404747327274 482.0
51765.0 325.0 0 188.48019592144303 483.0
51786.0 323.0 0 185.1363443696133 483.0
51807.0 337.0 0 181.79249281778363 483.0
51829.0 384.0 0 178.44864126595394 484.0
51850.0 393.0 0 175.10478971412422 484.0
51871.0 409.0 0 171.76093816229454 485.0
51892.0 499.0 0 168.41708661046482 485.0
51914.0 562.0 0 165.07323505863513 486.0
51935.0 556.0 0 161.72938350680545 486.0
51956.0 562.0 0 158.38553195497573 487.0
51977.0 562.0 0 155.04168040314605 487.0
51999.0 562.0 0 151.69782885131633 488.0
52020.0 562.0 0 148.35397729948664 488.0
52041.0 562.0 0 145.01012574765696 489.0
52062.0 562.0 0 141.66627419582724 489.0
52084.0 557.0 0 138.32242264399753 490.0
52105.0 561.0 0 134.97857109216784 490.0
52126.0 561.0 0 131.63471954033815 491.0
52168.0 561.0 0 128.29086798850847 491.0
52188.0 321.0 0 124.94701643667875 491.0
52209.0 314.0 0 121.60316488484905 491.0
52231.0 302.0 0 118.25931333301935 492.0
52251.0 304.0 0 114.91546178118965 492.0
52273.0 317.0 0 111.57161022935995 492.0
52294.0 367.0 0 108.22775867753025 493.0
52316.0 367.0 0 104.88390712570055 493.0
52336.0 357.0 0 101.54005557387086 493.0
52358.0 335.0 0 98.19620402204117 493.0
52379.0 371.0 0 94.85235247021146 494.0
52401.0 369.0 0 91.50850091838174 494.0
52421.0 321.0 0 88.16464936655206 494.0
52443.0 302.0 0 84.82079781472237 494.0
52464.0 327.0 0 81.47694626289265 495.0
52486.0 345.0 0 78.13309471106297 495.0
52506.0 248.0 0 74.78924315923328 495.0
52528.0 242.0 0 71.44539160740356 495.0
52549.0 264.0 0 68.10154005557385 496.0
52571.0 302.0 0 64.75768850374416 496.0
52591.0 260.0 0 61.413836951914476 496.0
52613.0 296.0 0 58.06998540008476 496.0
52634.0 296.0 0 54.726133848255074 496.0
52675.0 554.0 500 51.38228229642539 496.0
52697.0 346.0 0 48.03843074459568 496.0
52718.0 330.0 0 86.15127396034475 496.0
52739.0 327.0 0 124.2641171760938 496.0
52760.0 326.0 0 162.37696039184289 496.0
52782.0 320.0 0 200.48980360759194 496.0
52802.0 350.0 0 238.60264682334102 496.0
52824.0 288.0 0 276.71549003909007 496.0
52845.0 336.0 500 314.82833325483915 496.0
52867.0 507.0 0 352.94117647058823 496.0
52887.0 381.0 0 394.502473886751 496.0
52909.0 306.0 0 436.06377130291366 496.0
52930.0 294.0 0 477.6250687190764 496.0
52952.0 373.0 500 519.1863661352392 496.0
52972.0 555.0 0 560.7476635514018 496.0
52994.0 554.0 0 548.9293306669264 496.0
53015.0 555.0 0 537.110997782451 496.0
53037.0 556.0 0 525.2926648979756 496.0
53057.0 561.0 0 513.4743320135001 496.0
53079.0 555.0 0 501.6559991290247 496.0
53100.0 560.0 0 489.8376662445492 496.0
53122.0 561.0 0 478.0193333600738 496.0
53142.0 561.0 0 466.20100047559833 496.0
53184.0 560.0 0 454.3826675911229 497.0
53205.0 328.0 0 442.56433470664746 497.0
53226.0 316.0 0 430.74600182217205 498.0
53248.0 314.0 0 418.9276689376966 498.0
53269.0 316.0 0 407.1093360532211 499.0
53290.0 318.0 0 395.29100316874576 499.0
53311.0 363.0 0 383.4726702842703 500.0
53333.0 551.0 0 371.6543373997948 500.0
53353.0 555.0 0 359.8360045153194 501.0
53375.0 562.0 0 348.017671630844 501.0
53396.0 561.0 0 336.19933874636854 502.0
53418.0 563.0 0 324.3810058618931 503.0
53438.0 563.0 0 312.56267297741766 503.0
53460.0 562.0 0 300.7443400929422 504.0
53481.0 561.0 0 288.9260072084668 504.0
53503.0 561.0 0 277.1076743239914 505.0
53523.0 553.0 0 265.2893414395159 505.0
53545.0 562.0 0 253.47100855504044 506.0
53566.0 556.0 0 241.65267567056503 506.0
53588.0 561.0 0 229.83434278608962 507.0
53608.0 556.0 0 218.01600990161415 507.0
53630.0 556.0 0 206.19767701713874 507.0
53671.0 549.0 0 194.37934413266328 507.0
53692.0 323.0 0 182.56101124818787 507.0
53714.0 306.0 0 170.7426783637124 506.0
53735.0 302.0 0 158.924345479237 506.0
53756.0 304.0 0 147.10601259476152 506.0
53777.0 306.0 0 135.2876797102861 506.0
53799.0 258.0 0 123.4693468258107 505.0
53820.0 257.0 0 111.65101394133524 505.0
53841.0 295.0 0 99.83268105685977 505.0
53862.0 272.0 0 88.01434817238436 505.0
53884.0 317.0 500 76.19601528790895 504.0
53905.0 298.0 0 64.37768240343348 504.0
53926.0 255.0 0 165.7878602084611 504.0
53947.0 232.0 0 267.1980380134887 504.0
53969.0 227.0 0 368.60821581851627 503.0
53989.0 303.0 500 470.0183936235439 503.0
54011.0 188.0 0 571.4285714285714 503.0
54032.0 228.0 500 983.3887043189368 503.0
54054.0 201.0 0 1395.3488372093022 502.0
54074.0 208.0 0 1230.3582652419861 502.0
54096.0 216.0 0 1065.36769327467 502.0
54117.0 256.0 0 900.3771213073538 502.0
54139.0 256.0 0 735.3865493400377 502.0
54180.0 550.0 500 570.3959773727215 502.0
54201.0 332.0 0 405.4054054054054 503.0
54222.0 322.0 0 398.8473767885533 503.0
54243.0 320.0 0 392.28934817170114 504.0
54265.0 324.0 0 385.731319554849 504.0
54286.0 324.0 0 379.17329093799685 504.0
54307.0 310.0 0 372.61526232114466 505.0
54328.0 292.0 0 366.0572337042925 505.0
54350.0 417.0 500 359.4992050874404 506.0
54371.0 287.0 0 352.94117647058823 506.0
54392.0 256.0 0 360.43606631841925 506.0
54413.0 256.0 0 367.93095616625027 507.0
54435.0 274.0 0 375.4258460140813 507.0
54456.0 294.0 0 382.92073586191236 507.0
54477.0 233.0 0 390.4156257097434 508.0
54498.0 292.0 500 397.9105155575744 508.0
54520.0 317.0 0 405.4054054054054 509.0
54540.0 289.0 0 582.7702702702702 509.0
54562.0 329.0 500 760.1351351351351 509.0
54583.0 281.0 0 937.5 510.0
54605.0 344.0 500 1166.4244186046512 510.0
54625.0 266.0 0 1395.3488372093022 510.0
54647.0 266.0 0 1171.1964135612216 511.0
54688.0 537.0 500 947.0439899131409 511.0
54709.0 338.0 0 722.8915662650602 511.0
54731.0 329.0 0 692.6806088137321 512.0
54752.0 323.0 0 662.469651362404 512.0
54773.0 328.0 0 632.2586939110759 512.0
54794.0 322.0 0 602.0477364597477 512.0
54816.0 270.0 0 571.8367790084196 512.0
54837.0 279.0 0 541.6258215570916 513.0
54858.0 273.0 0 511.4148641057635 513.0
54879.0 295.0 0 481.2039066544354 513.0
54901.0 302.0 0 450.9929492031073 513.0
54922.0 281.0 0 420.7819917517792 513.0
54943.0 266.0 0 390.57103430045106 514.0
54964.0 259.0 0 360.360076849123 514.0
54986.0 265.0 0 330.1491193977949 514.0
55007.0 274.0 0 299.9381619464668 514.0
55028.0 254.0 0 269.72720449513866 515.0
55049.0 213.0 0 239.5162470438106 515.0
55071.0 209.0 0 209.3052895924825 515.0
55091.0 284.0 500 179.09433214115438 515.0
55113.0 200.0 0 148.8833746898263 515.0
55134.0 200.0 0 337.350821221789 515.0
55175.0 547.0 500 525.8182677537517 514.0
55197.0 343.0 0 714.2857142857143 513.0
55218.0 333.0 0 677.6468976852486 512.0
55238.0 332.0 0 641.0080810847829 511.0
55260.0 330.0 0 604.3692644843172 510.0
55281.0 332.0 0 567.7304478838515 509.0
55303.0 315.0 0 531.0916312833858 508.0
55323.0 302.0 0 494.4528146829202 508.0
55345.0 302.0 0 457.8139980824545 507.0
55366.0 304.0 0 421.1751814819888 506.0
55388.0 277.0 0 384.53636488152307 505.0
55408.0 258.0 0 347.89754828105737 504.0
55430.0 255.0 0 311.2587316805917 503.0
55451.0 232.0 0 274.619915080126 503.0
55473.0 291.0 500 237.98109847966032 502.0
55493.0 180.0 0 201.34228187919464 501.0
55515.0 215.0 0 210.5664938452241 500.0
55536.0 225.0 0 219.79070581125353 499.0
55558.0 236.0 0 229.014917777283 498.0
55578.0 271.0 0 238.23912974331245 497.0
55600.0 244.0 0 247.4633417093419 497.0
55621.0 264.0 0 256.68755367537136 496.0
55642.0 264.0 0 265.9117656414008 495.0
55684.0 555.0 500 275.1359776074303 493.0
55704.0 351.0 0 284.3601895734597 492.0
55726.0 339.0 0 284.2260574085666 492.0
55747.0 334.0 0 284.0919252436734 491.0
55769.0 334.0 0 283.9577930787803 490.0
55789.0 335.0 0 283.8236609138871 489.0
55811.0 323.0 0 283.689528748994 488.0
55832.0 325.0 0 283.5553965841009 487.0
55854.0 314.0 0 283.4212644192077 486.0
55874.0 228.0 0 283.2871322543146 486.0
55896.0 273.0 500 283.1530000894214 485.0
55917.0 301.0 0 283.0188679245283 484.0
55939.0 287.0 0 277.6157804459691 483.0
55959.0 317.0 0 272.21269296740996 482.0
55981.0 325.0 0 266.80960548885076 481.0
56002.0 309.0 0 261.4065180102916 480.0
56024.0 307.0 0 256.0034305317324 480.0
56044.0 286.0 0 250.60034305317325 479.0
56066.0 286.0 0 245.19725557461408 478.0
56087.0 319.0 0 239.7941680960549 477.0
56109.0 337.0 0 234.39108061749573 476.0
56129.0 337.0 0 228.98799313893653 475.0
56171.0 553.0 500 223.58490566037736 475.0
56192.0 355.0 0 218.1818181818182 475.0
56213.0 339.0 0 213.83087983567273 475.0
56235.0 339.0 0 209.47994148952725 474.0
56256.0 339.0 0 205.1290031433818 474.0
56277.0 339.0 0 200.7780647972363 474.0
56298.0 331.0 0 196.42712645109086 474.0
56320.0 338.0 0 192.07618810494537 474.0
56340.0 335.0 0 187.72524975879992 473.0
56362.0 333.0 0 183.37431141265444 473.0
56383.0 324.0 0 179.02337306650898 473.0
56405.0 314.0 0 174.67243472036353 473.0
56425.0 314.0 0 170.32149637421804 473.0
56447.0 305.0 0 165.9705580280726 472.0
56468.0 324.0 0 161.61961968192713 472.0
56490.0 336.0 0 157.26868133578165 472.0
56510.0 320.0 0 152.91774298963617 472.0
56532.0 266.0 0 148.5668046434907 471.0
56553.0 281.0 0 144.21586629734526 471.0
56575.0 288.0 0 139.86492795119977 471.0
56595.0 375.0 0 135.5139896050543 471.0
56617.0 255.0 0 131.16305125890887 471.0
56638.0 255.0 0 126.81211291276338 471.0
56679.0 556.0 500 122.46117456661791 471.0
56701.0 346.0 0 118.11023622047244 471.0
56722.0 330.0 0 117.37633405580401 472.0
56743.0 339.0 0 116.64243189113556 472.0
56764.0 334.0 0 115.90852972646712 472.0
56786.0 337.0 0 115.17462756179869 472.0
56807.0 358.0 0 114.44072539713024 473.0
56828.0 430.0 0 113.7068232324618 473.0
56849.0 558.0 0 112.97292106779335 473.0
56871.0 562.0 0 112.23901890312492 473.0
56891.0 563.0 0 111.50511673845648 474.0
56913.0 563.0 0 110.77121457378803 474.0
56934.0 563.0 0 110.0373124091196 474.0
56956.0 556.0 0 109.30341024445116 474.0
56976.0 562.0 0 108.56950807978271 475.0
56998.0 560.0 0 107.83560591511427 475.0
57019.0 556.0 0 107.10170375044584 475.0
57041.0 564.0 0 106.36780158577739 475.0
57061.0 563.0 0 105.63389942110895 476.0
57083.0 563.0 0 104.89999725644051 476.0
57104.0 562.0 0 104.16609509177206 476.0
57126.0 562.0 0 103.43219292710363 477.0
57167.0 562.0 0 102.69829076243519 479.0
57188.0 337.0 0 101.96438859776674 480.0
57209.0 314.0 0 101.2304864330983 481.0
57230.0 314.0 0 100.49658426842987 482.0
57252.0 314.0 0 99.76268210376142 483.0
57273.0 314.0 0 99.02877993909298 484.0
57294.0 428.0 500 98.29487777442453 485.0
57315.0 547.0 0 97.5609756097561 486.0
57337.0 561.0 0 191.25632765761623 487.0
57357.0 532.0 0 284.9516797054763 489.0
57379.0 458.0 0 378.6470317533364 490.0
57400.0 561.0 500 472.34238380119655 491.0
57422.0 379.0 0 566.0377358490566 492.0
57442.0 258.0 0 689.8584905660377 493.0
57464.0 335.0 500 813.6792452830189 494.0
57485.0 418.0 0 937.5 495.0
57507.0 198.0 0 942.4603174603175 496.0
57527.0 272.0 500 947.4206349206349 497.0
57549.0 285.0 0 952.3809523809524 498.0
57570.0 168.0 0 942.6129426129427 500.0
57592.0 320.0 500 932.8449328449328 501.0
57612.0 264.0 0 923.0769230769231 502.0
57634.0 264.0 0 856.3484708063021 503.0
57675.0 539.0 500 789.6200185356812 504.0
57696.0 334.0 0 722.8915662650602 504.0
57718.0 317.0 0 680.5346385542168 505.0
57739.0 317.0 0 638.1777108433735 505.0
57760.0 321.0 0 595.8207831325301 506.0
57781.0 310.0 0 553.4638554216867 507.0
57803.0 462.0 500 511.10692771084337 507.0
57824.0 555.0 0 468.75 508.0
57845.0 556.0 0 457.091927680163 508.0
57866.0 557.0 0 445.43385536032594 509.0
57888.0 555.0 0 433.77578304048893 509.0
57908.0 562.0 0 422.11771072065187 510.0
57930.0 557.0 0 410.45963840081487 510.0
57951.0 554.0 0 398.80156608097786 511.0
57973.0 561.0 0 387.1434937611408 512.0
57993.0 554.0 0 375.4854214413038 512.0
58015.0 556.0 0 363.8273491214668 513.0
58036.0 559.0 0 352.16927680162974 513.0
58058.0 561.0 0 340.51120448179273 514.0
58078.0 556.0 0 328.85313216195567 514.0
58100.0 558.0 0 317.19505984211867 515.0
58121.0 559.0 0 305.5369875222816 515.0
58143.0 559.0 0 293.8789152024446 515.0
58184.0 552.0 0 282.2208428826076 515.0
58205.0 328.0 0 270.56277056277054 515.0
58225.0 298.0 0 258.90469824293353 515.0
58247.0 310.0 0 247.24662592309647 515.0
58269.0 315.0 0 235.58855360325947 514.0
58290.0 316.0 0 223.93048128342247 514.0
58310.0 316.0 0 212.27240896358546 514.0
58332.0 74.0 0 200.6143366437484 514.0
58352.0 74.0 0 188.95626432391134 514.0
58372.0 74.0 0 177.29819200407434 514.0
58392.0 74.0 0 165.64011968423733 513.0
58413.0 74.0 0 153.98204736440027 513.0
58432.0 112.0 0 142.32397504456327 513.0
58454.0 303.0 0 130.66590272472627 513.0
58475.0 303.0 0 119.0078304048892 513.0
58497.0 303.0 0 107.34975808505214 513.0
58517.0 356.0 500 95.69168576521514 512.0
58539.0 169.0 0 84.03361344537815 512.0
58560.0 169.0 0 239.49579831932772 512.0
58582.0 134.0 0 394.9579831932773 512.0
58602.0 560.0 500 550.4201680672269 512.0
58624.0 560.0 0 705.8823529411765 512.0
58645.0 560.0 0 659.0465570114302 512.0
58686.0 536.0 0 612.2107610816838 513.0
58708.0 334.0 0 565.3749651519375 514.0
58729.0 319.0 0 518.5391692221913 514.0
58750.0 320.0 0 471.7033732924449 515.0
58771.0 322.0 0 424.8675773626986 515.0
58793.0 317.0 0 378.0317814329523 516.0
58813.0 404.0 500 331.19598550320603 516.0
58835.0 557.0 0 284.3601895734597 517.0
58856.0 559.0 0 278.68671654025576 517.0
58878.0 559.0 0 273.0132435070518 518.0
58898.0 559.0 0 267.3397704738478 519.0
58920.0 557.0 0 261.66629744064386 519.0
58941.0 560.0 0 255.9928244074399 520.0
58963.0 559.0 0 250.31935137423594 520.0
58983.0 557.0 0 244.64587834103196 521.0
59005.0 557.0 0 238.972405307828 521.0
59026.0 556.0 0 233.29893227462406 522.0
59048.0 560.0 0 227.6254592414201 522.0
59068.0 560.0 0 221.9519862082161 523.0
59090.0 559.0 0 216.27851317501216 524.0
59111.0 553.0 0 210.60504014180822 524.0
59133.0 553.0 0 204.93156710860424 524.0
59174.0 552.0 0 199.25809407540027 524.0
59195.0 327.0 0 193.58462104219632 524.0
59216.0 303.0 0 187.91114800899237 524.0
59237.0 307.0 0 182.2376749757884 523.0
59259.0 304.0 0 176.56420194258445 523.0
59280.0 310.0 0 170.89072890938047 523.0
59301.0 251.0 0 165.21725587617652 523.0
59322.0 250.0 0 159.54378284297255 523.0
59344.0 251.0 0 153.8703098097686 522.0
59364.0 284.0 0 148.19683677656462 522.0
59386.0 276.0 0 142.52336374336068 522.0
59407.0 250.0 0 136.8498907101567 522.0
59429.0 234.0 0 131.17641767695275 521.0
59449.0 253.0 0 125.50294464374878 521.0
59471.0 288.0 0 119.82947161054483 521.0
59492.0 212.0 0 114.15599857734085 521.0
59514.0 210.0 0 108.4825255441369 521.0
59534.0 218.0 0 102.80905251093293 520.0
59556.0 223.0 0 97.13557947772898 520.0
59577.0 230.0 0 91.462106444525 520.0
59599.0 140.0 0 85.78863341132106 520.0
59619.0 223.0 500 80.11516037811708 520.0
59641.0 223.0 0 74.44168734491315 519.0
59682.0 547.0 500 513.4113198629328 519.0
59703.0 337.0 0 952.3809523809524 519.0
59725.0 320.0 0 892.6237161531279 518.0
59746.0 320.0 0 832.8664799253035 518.0
59767.0 322.0 0 773.109243697479 518.0
59788.0 326.0 0 713.3520074696546 518.0
59810.0 288.0 0 653.5947712418301 517.0
59830.0 280.0 0 593.8375350140057 517.0
59852.0 286.0 0 534.0802987861812 517.0
59873.0 256.0 0 474.3230625583567 517.0
59895.0 247.0 0 414.5658263305322 516.0
59915.0 225.0 0 354.80859010270774 516.0
59937.0 356.0 500 295.05135387488326 516.0
59958.0 211.0 0 235.2941176470588 516.0
59980.0 223.0 0 237.62677484787017 515.0
60000.0 241.0 0 239.95943204868155 515.0
60022.0 251.0 0 242.2920892494929 515.0
60043.0 249.0 0 244.62474645030426 514.0
60065.0 287.0 0 246.9574036511156 514.0
60085.0 287.0 0 249.290060851927 514.0
60107.0 311.0 0 251.62271805273835 514.0
60128.0 311.0 0 253.9553752535497 513.0
60169.0 556.0 500 256.2880324543611 511.0
60191.0 354.0 0 258.62068965517244 510.0
60212.0 339.0 0 254.65494075266702 509.0
60233.0 335.0 0 250.68919185016162 508.0
60254.0 328.0 0 246.7234429476562 507.0
60276.0 334.0 0 242.75769404515077 506.0
60296.0 373.0 0 238.79194514264537 505.0
60318.0 559.0 0 234.82619624013995 504.0
60339.0 560.0 0 230.86044733763453 502.0
60361.0 562.0 0 226.8946984351291 501.0
60381.0 561.0 0 222.9289495326237 500.0
60403.0 562.0 0 218.96320063011828 499.0
60424.0 558.0 0 214.99745172761288 498.0
60446.0 562.0 0 211.03170282510746 497.0
60466.0 562.0 0 207.06595392260203 496.0
60488.0 556.0 0 203.1002050200966 495.0
60509.0 560.0 0 199.1344561175912 494.0
60531.0 562.0 0 195.1687072150858 492.0
60551.0 554.0 0 191.20295831258036 491.0
60573.0 562.0 0 187.23720941007497 490.0
60594.0 561.0 0 183.27146050756954 489.0
60616.0 562.0 0 179.30571160506412 488.0
60636.0 562.0 0 175.3399627025587 487.0
60678.0 553.0 0 171.3742138000533 486.0
60698.0 329.0 0 167.40846489754787 485.0
60720.0 304.0 0 163.44271599504245 484.0
60741.0 310.0 0 159.47696709253705 483.0
60763.0 306.0 0 155.51121819003163 483.0
60783.0 313.0 0 151.5454692875262 482.0
60805.0 359.0 0 147.5797203850208 481.0
60826.0 390.0 0 143.61397148251538 480.0
60847.0 500.0 0 139.64822258000999 480.0
60868.0 561.0 0 135.68247367750456 479.0
60890.0 556.0 0 131.71672477499914 478.0
60911.0 562.0 0 127.75097587249371 477.0
60932.0 564.0 0 123.78522696998829 476.0
60953.0 562.0 0 119.81947806748286 476.0
60975.0 565.0 0 115.85372916497747 475.0
60996.0 563.0 0 111.88798026247204 474.0
61017.0 556.0 0 107.92223135996664 473.0
61038.0 564.0 0 103.95648245746122 473.0
61060.0 556.0 0 99.9907335549558 472.0
61081.0 564.0 0 96.0249846524504 471.0
61102.0 562.0 0 92.05923574994497 470.0
61123.0 555.0 0 88.09348684743958 470.0
61145.0 555.0 0 84.12773794493415 469.0
61186.0 560.0 0 80.16198904242873 467.0
61207.0 322.0 0 76.1962401399233 466.0
61229.0 302.0 0 72.23049123741788 466.0
61249.0 306.0 0 68.26474233491246 465.0
61271.0 309.0 0 64.29899343240706 464.0
61292.0 308.0 0 60.333244529901634 463.0
61314.0 364.0 500 56.36749562739624 462.0
61334.0 352.0 0 52.40174672489083 462.0
61356.0 330.0 0 156.20711166562694 461.0
61377.0 330.0 0 260.01247660636307 460.0
61399.0 317.0 0 363.8178415470992 459.0
61419.0 458.0 500 467.6232064878353 458.0
61441.0 330.0 0 571.4285714285714 458.0
61462.0 301.0 0 540.9551078842418 457.0
61483.0 320.0 0 510.48164433991207 456.0
61504.0 326.0 0 480.0081807955824 455.0
61526.0 324.0 0 449.5347172512527 454.0
61547.0 336.0 0 419.061253706923 454.0
61568.0 342.0 0 388.58779016259336 453.0
61589.0 354.0 0 358.11432661826365 452.0
61611.0 340.0 0 327.64086307393393 451.0
61632.0 340.0 0 297.16739952960427 451.0
61673.0 546.0 500 266.6939359852746 453.0
61695.0 336.0 0 236.2204724409449 454.0
61715.0 316.0 0 231.08524477918522 454.0
61737.0 320.0 0 225.95001711742555 455.0
61758.0 320.0 0 220.81478945566587 456.0
61780.0 323.0 0 215.6795617939062 457.0
61800.0 232.0 0 210.54433413214653 458.0
61822.0 194.0 0 205.40910647038686 459.0
61843.0 213.0 0 200.2738788086272 460.0
61865.0 234.0 0 195.13865114686752 461.0
61885.0 224.0 0 190.00342348510785 462.0
61907.0 224.0 0 184.86819582334817 463.0
61928.0 242.0 0 179.7329681615885 464.0
61950.0 249.0 0 174.59774049982883 465.0
61970.0 269.0 0 169.46251283806916 466.0
61992.0 276.0 0 164.3272851763095 467.0
62013.0 265.0 0 159.19205751454982 468.0
62034.0 275.0 0 154.05682985279014 468.0
62055.0 272.0 0 148.92160219103047 469.0
62077.0 265.0 0 143.7863745292708 470.0
62098.0 254.0 0 138.65114686751113 471.0
62119.0 230.0 0 133.51591920575146 472.0
62140.0 230.0 0 128.3806915439918 473.0
62181.0 549.0 500 123.24546388223212 473.0
62203.0 347.0 0 118.11023622047244 474.0
62224.0 328.0 0 121.7577582213988 474.0
62246.0 327.0 0 125.40528022232516 475.0
62266.0 332.0 0 129.05280222325152 475.0
62288.0 320.0 0 132.70032422417785 475.0
62309.0 279.0 0 136.3478462251042 476.0
62331.0 264.0 0 139.99536822603056 476.0
62351.0 273.0 0 143.64289022695692 477.0
62373.0 271.0 0 147.29041222788328 477.0
62394.0 279.0 0 150.93793422880964 477.0
62416.0 305.0 0 154.585456229736 478.0
62436.0 297.0 0 158.23297823066235 478.0
62458.0 284.0 0 161.8805002315887 478.0
62479.0 272.0 0 165.52802223251507 479.0
62501.0 261.0 0 169.1755442334414 479.0
62521.0 311.0 500 172.82306623436776 480.0
62543.0 232.0 0 176.47058823529412 480.0
62564.0 203.0 0 214.62639109697932 480.0
62585.0 224.0 0 252.78219395866455 481.0
62606.0 248.0 0 290.9379968203498 481.0
62628.0 248.0 0 329.09379968203496 481.0
62669.0 552.0 500 367.24960254372024 481.0
62690.0 342.0 0 405.4054054054054 480.0
62712.0 328.0 0 391.9604348788898 480.0
62732.0 336.0 0 378.51546435237424 480.0
62754.0 324.0 0 365.07049382585865 479.0
62775.0 335.0 0 351.62552329934306 479.0
62797.0 320.0 0 338.18055277282747 479.0
62817.0 309.0 0 324.7355822463119 478.0
62839.0 310.0 0 311.2906117197963 478.0
62860.0 305.0 0 297.8456411932807 478.0
62882.0 298.0 0 284.4006706667651 477.0
62902.0 346.0 500 270.9557001402495 477.0
62924.0 218.0 0 257.51072961373393 477.0
62945.0 256.0 0 254.16744417490827 476.0
62967.0 279.0 0 250.8241587360826 476.0
62987.0 312.0 0 247.48087329725698 476.0
63009.0 295.0 0 244.13758785843132 475.0
63030.0 318.0 0 240.79430241960566 475.0
63052.0 316.0 0 237.45101698078003 475.0
63072.0 329.0 0 234.10773154195437 474.0
63094.0 334.0 0 230.7644461031287 474.0
63115.0 313.0 0 227.42116066430304 474.0
63137.0 313.0 0 224.07787522547738 473.0
63178.0 558.0 500 220.73458978665175 473.0
63199.0 344.0 0 217.3913043478261 473.0
63220.0 336.0 0 213.32894158981117 473.0
63241.0 324.0 0 209.26657883179624 473.0
63263.0 338.0 0 205.2042160737813 473.0
63283.0 338.0 0 201.14185331576635 473.0
63305.0 372.0 0 197.07949055775143 473.0
63326.0 434.0 0 193.0171277997365 473.0
63348.0 561.0 0 188.95476504172157 473.0
63368.0 556.0 0 184.89240228370664 473.0
63390.0 562.0 0 180.83003952569172 472.0
63411.0 557.0 0 176.7676767676768 472.0
63433.0 562.0 0 172.70531400966183 472.0
63453.0 558.0 0 168.6429512516469 472.0
63475.0 562.0 0 164.58058849363198 472.0
63496.0 557.0 0 160.51822573561705 472.0
63518.0 556.0 0 156.45586297760212 472.0
63538.0 562.0 0 152.39350021958717 472.0
63560.0 557.0 0 148.33113746157227 472.0
63581.0 562.0 0 144.2687747035573 472.0
63603.0 562.0 0 140.20641194554238 472.0
63623.0 556.0 0 136.14404918752746 472.0
63645.0 556.0 0 132.08168642951253 471.0
63685.0 560.0 0 128.0193236714976 471.0
63707.0 323.0 0 123.95696091348266 471.0
63728.0 317.0 0 119.89459815546773 471.0
63750.0 314.0 0 115.83223539745279 471.0
63770.0 317.0 0 111.76987263943786 471.0
63792.0 318.0 0 107.70750988142292 471.0
63813.0 304.0 0 103.645147123408 471.0
63835.0 288.0 0 99.58278436539307 471.0
63855.0 275.0 0 95.52042160737814 471.0
63877.0 269.0 0 91.4580588493632 471.0
63898.0 323.0 500 87.39569609134827 470.0
63919.0 290.0 0 83.33333333333333 470.0
63940.0 259.0 0 179.874213836478 470.0
63962.0 261.0 0 276.41509433962267 470.0
63983.0 236.0 0 372.95597484276726 470.0
64004.0 337.0 500 469.49685534591197 470.0
64025.0 207.0 0 566.0377358490566 470.0
64047.0 234.0 0 535.8937144133081 470.0
64068.0 275.0 0 505.74969297755945 470.0
64089.0 261.0 0 475.6056715418109 470.0
64110.0 249.0 0 445.46165010606234 470.0
64132.0 249.0 0 415.31762867031375 470.0
64173.0 558.0 500 385.17360723456517 470.0
64194.0 336.0 0 355.0295857988166 470.0
64216.0 332.0 0 345.05163011950344 470.0
64236.0 331.0 0 335.0736744401903 470.0
64258.0 331.0 0 325.09571876087716 470.0
64279.0 332.0 0 315.117763081564 470.0
64301.0 273.0 0 305.1398074022508 470.0
64321.0 267.0 0 295.1618517229377 470.0
64343.0 259.0 0 285.18389604362454 470.0
64364.0 273.0 0 275.2059403643114 470.0
64386.0 247.0 0 265.22798468499826 471.0
64406.0 175.0 0 255.25002900568512 471.0
64428.0 231.0 500 245.27207332637198 471.0
64449.0 261.0 0 235.2941176470588 471.0
64470.0 258.0 0 235.37833171923026 471.0
64491.0 257.0 0 235.46254579140174 471.0
64513.0 281.0 0 235.5467598635732 471.0
64534.0 290.0 0 235.63097393574466 471.0
64555.0 320.0 0 235.7151880079161 471.0
64576.0 305.0 0 235.7994020800876 471.0
64598.0 302.0 0 235.88361615225904 471.0
64619.0 333.0 0 235.96783022443051 471.0
64640.0 333.0 0 236.05204429660196 471.0
64682.0 548.0 500 236.13625836877344 471.0
64702.0 351.0 0 236.2204724409449 471.0
64724.0 322.0 0 231.65433089618264 471.0
64745.0 322.0 0 227.0881893514204 471.0
64767.0 335.0 0 222.52204780665812 471.0
64787.0 323.0 0 217.95590626189588 471.0
64809.0 351.0 0 213.38976471713363 470.0
64830.0 376.0 0 208.82362317237138 470.0
64852.0 461.0 0 204.25748162760914 470.0
64872.0 563.0 0 199.69134008284686 470.0
64894.0 563.0 0 195.12519853808465 470.0
64915.0 558.0 0 190.55905699332237 470.0
64937.0 563.0 0 185.99291544856013 470.0
64957.0 564.0 0 181.42677390379788 470.0
64979.0 564.0 0 176.86063235903563 469.0
65000.0 564.0 0 172.2944908142734 469.0
65022.0 564.0 0 167.7283492695111 469.0
65042.0 564.0 0 163.16220772474887 469.0
65064.0 564.0 0 158.59606617998662 469.0
65085.0 564.0 0 154.02992463522438 469.0
65106.0 564.0 0 149.46378309046213 469.0
65127.0 564.0 0 144.89764154569986 469.0
65168.0 554.0 0 140.3315000009376 469.0
65190.0 334.0 0 135.76535845617536 469.0
65211.0 309.0 0 131.1992169114131 470.0
65233.0 312.0 0 126.63307536665086 470.0
65253.0 312.0 0 122.06693382188861 470.0
65275.0 310.0 0 117.50079227712637 470.0
65296.0 282.0 0 112.93465073236412 471.0
65318.0 281.0 0 108.36850918760187 471.0
65338.0 227.0 0 103.80236764283961 471.0
65360.0 244.0 0 99.23622609807737 471.0
65381.0 269.0 0 94.67008455331512 472.0
65403.0 245.0 0 90.10394300855285 472.0
65423.0 296.0 500 85.5378014637906 472.0
65445.0 184.0 0 80.97165991902834 472.0
65466.0 173.0 0 361.6734143049933 473.0
65488.0 268.0 500 642.3751686909582 473.0
65508.0 206.0 0 923.0769230769231 473.0
65530.0 196.0 0 932.8449328449328 473.0
65551.0 242.0 500 942.6129426129427 474.0
65572.0 278.0 0 952.3809523809524 474.0
65593.0 267.0 0 857.1428571428571 474.0
65615.0 300.0 0 761.9047619047619 474.0
65636.0 300.0 0 666.6666666666667 475.0
65677.0 557.0 500 571.4285714285714 476.0
65699.0 342.0 0 476.1904761904762 477.0
65719.0 319.0 0 463.98809523809524 478.0
65741.0 317.0 0 451.7857142857143 479.0
65762.0 326.0 0 439.58333333333337 479.0
65784.0 322.0 0 427.3809523809524 480.0
65804.0 335.0 0 415.17857142857144 481.0
65826.0 499.0 0 402.9761904761905 482.0
65847.0 562.0 0 390.7738095238095 482.0
65869.0 562.0 0 378.57142857142856 483.0
65889.0 560.0 0 366.36904761904765 484.0
65911.0 556.0 0 354.1666666666667 485.0
65932.0 560.0 0 341.9642857142857 485.0
65954.0 557.0 0 329.76190476190476 486.0
65974.0 560.0 0 317.55952380952385 487.0
65996.0 557.0 0 305.3571428571429 488.0
66017.0 558.0 0 293.1547619047619 489.0
66039.0 562.0 0 280.95238095238096 489.0
66059.0 560.0 0 268.75 490.0
66081.0 560.0 0 256.54761904761904 491.0
66102.0 562.0 0 244.3452380952381 492.0
66123.0 562.0 0 232.14285714285717 492.0
66144.0 562.0 0 219.9404761904762 493.0
66186.0 559.0 0 207.73809523809524 495.0
66207.0 329.0 0 195.53571428571428 496.0
66228.0 306.0 0 183.33333333333331 497.0
66250.0 301.0 0 171.1309523809524 498.0
66270.0 307.0 0 158.92857142857144 499.0
66292.0 309.0 0 146.72619047619048 499.0
66313.0 348.0 0 134.52380952380952 500.0
66335.0 376.0 0 122.32142857142856 501.0
66355.0 376.0 0 110.11904761904765 502.0
66377.0 432.0 500 97.91666666666669 503.0
66398.0 485.0 0 85.71428571428571 504.0
66420.0 557.0 0 86.29343629343629 505.0
66440.0 559.0 0 86.87258687258687 506.0
66462.0 559.0 0 87.45173745173744 507.0
66483.0 558.0 0 88.03088803088802 507.0
66505.0 556.0 0 88.6100386100386 508.0
66525.0 559.0 0 89.18918918918918 509.0
66547.0 559.0 0 89.76833976833976 510.0
66568.0 558.0 0 90.34749034749035 511.0
66590.0 557.0 0 90.92664092664093 512.0
66610.0 545.0 0 91.5057915057915 513.0
66632.0 545.0 0 92.08494208494209 513.0
66672.0 552.0 0 92.66409266409266 513.0
66694.0 321.0 0 93.24324324324324 513.0
66715.0 307.0 0 93.82239382239382 513.0
66737.0 306.0 0 94.4015444015444 513.0
66757.0 308.0 0 94.98069498069498 512.0
66779.0 302.0 0 95.55984555984556 512.0
66800.0 145.0 0 96.13899613899613 512.0
66821.0 156.0 0 96.71814671814671 512.0
66842.0 185.0 0 97.29729729729729 512.0
66864.0 232.0 0 97.87644787644788 512.0
66885.0 109.0 0 98.45559845559846 511.0
66906.0 113.0 0 99.03474903474904 511.0
66927.0 106.0 0 99.61389961389962 511.0
66949.0 91.0 0 100.1930501930502 511.0
66969.0 138.0 500 100.77220077220078 511.0
66990.0 138.0 0 101.35135135135135 511.0
67011.0 138.0 0 122.76982865218159 510.0
67033.0 75.0 0 144.18830595301182 510.0
67052.0 67.0 0 165.60678325384208 510.0
67073.0 81.0 0 187.02526055467231 510.0
67093.0 77.0 0 208.44373785550258 510.0
67114.0 84.0 0 229.8622151563328 510.0
67133.0 84.0 0 251.28069245716304 509.0
67173.0 556.0 500 272.6991697579933 509.0
67195.0 339.0 0 294.11764705882354 509.0
